"Time","emgs"
0.558,0.00152588,-0.00274658,0.00518799,0.00915527
0.564,-0.0109863,-0.00152588,-0.00671387,0.00488281
0.57,-0.00915527,-0.00518799,0.00305176,0.00640869
0.576,-0.0100708,-0.00274658,0.00549316,0.00640869
0.582,-0.00244141,-0.00305176,-0.0143433,0.00335693
0.588,0.00823975,-0.00335693,0.00152588,0.0125122
0.594,-0.00518799,-0.000610352,-0.00274658,0.0186157
0.6,-0.0189209,-0.00366211,-0.00183105,-0.00518799
0.606,-0.0259399,-0.00183105,-0.000915527,-0.0192261
0.612,0.00427246,-0.00488281,-0.00152588,0.00152588
0.618,0.00305176,-0.00518799,-0.00152588,0.0152588
0.624,-0.00335693,-0.00396729,-0.00640869,0.00762939
0.63,-0.0088501,-0.000915527,0.00152588,0.0161743
0.636,-0.0152588,0.00152588,0.0012207,0.0128174
0.642,0.00335693,-0.00488281,-0.00823975,0.00915527
0.648,0,-0.0012207,-0.000610352,0.00366211
0.654,-0.00427246,-0.00305176,-0.000610352,0.00610352
0.66,-0.00823975,-0.00396729,0.0012207,0.00457764
0.666,-0.00518799,-0.00183105,0.000610352,0.00823975
0.672,-0.00946045,-0.00366211,-0.00701904,0.0088501
0.678,-0.000610352,-0.00671387,-0.00946045,0.00946045
0.684,0.00396729,-0.00213623,0.00793457,0.00671387
0.69,-0.00915527,-0.00366211,-0.012207,0.000610352
0.696,-0.0158691,-0.00549316,-0.00701904,0.012207
0.702,0.00152588,-0.00305176,-0.00518799,0.000610352
0.708,0.0149536,-0.00305176,0.00305176,0.00640869
0.714,-0.0161743,-0.000610352,-0.00732422,0.0112915
0.72,-0.0241089,-0.000915527,0.000305176,0.00610352
0.726,0.000610352,-0.00335693,0.000305176,0.00305176
0.732,-0.00518799,-0.00671387,0.00213623,0.0170898
0.738,-0.00640869,-0.00396729,-0.00427246,0.0100708
0.744,-0.00335693,-0.00579834,-0.000610352,0.0109863
0.75,-0.00915527,-0.00152588,0.0088501,0.0109863
0.756,-0.00915527,-0.00274658,-0.00610352,0.0106812
0.762,-0.00946045,-0.00518799,-0.00274658,0.00610352
0.768,-0.0088501,-0.00671387,0.00213623,0.00518799
0.774,-0.0125122,-0.00671387,0.00183105,0.0180054
0.78,0.000610352,-0.0012207,-0.00518799,0.00854492
0.786,-0.00366211,-0.0012207,-0.00213623,-0.00549316
0.792,-0.00732422,-0.00213623,0.00640869,-0.0012207
0.798,-0.00579834,-0.00183105,-0.00244141,0.00488281
0.804,-0.00274658,-0.00488281,0.00152588,0.0198364
0.81,-0.00793457,-0.00427246,-0.000610352,0.0100708
0.816,-0.0125122,-0.00579834,0.00366211,0.00640869
0.822,-0.00823975,-0.0012207,-0.00427246,0.0100708
0.828,0.00213623,-0.00579834,-0.00244141,0.00610352
0.834,-0.015564,-0.00274658,-0.00427246,0.00823975
0.84,-0.00549316,-0.00701904,-0.0189209,0.0106812
0.846,0.0125122,-0.00640869,0.010376,0.00823975
0.852,-0.0204468,-0.00152588,0.00518799,0.00213623
0.858,-0.00640869,-0.00427246,-0.00274658,0.00823975
0.864,0.00335693,-0.00396729,-0.0143433,0.00518799
0.87,-0.000915527,-0.00244141,-0.00152588,0.00762939
0.876,-0.0131226,-0.00274658,0.00152588,0.0177002
0.882,-0.0146484,-0.000915527,-0.00213623,-0.000610352
0.888,-0.00671387,-0.00457764,0.0012207,-0.0109863
0.894,-0.0012207,-0.00274658,-0.00396729,0.00518799
0.9,-0.00457764,-0.00427246,-0.00152588,0.0125122
0.906,-0.00366211,0.000610352,0.0134277,0.0137329
0.912,-0.00213623,-0.00732422,-0.000915527,0.0210571
0.918,-0.0131226,-0.00366211,0,0.0125122
0.924,-0.00732422,-0.00457764,-0.00152588,-0.00488281
0.93,-0.00793457,-0.00488281,-0.00244141,-0.00213623
0.936,-0.00640869,-0.00366211,-0.00549316,0.00305176
0.942,-0.0131226,0,0.00305176,0.010376
0.948,-0.00396729,-0.00732422,-0.0115967,0.00396729
0.954,0.00366211,-0.00396729,-0.00854492,0.00518799
0.96,-0.0109863,-0.00152588,0.00244141,0.0100708
0.966,-0.0012207,-0.00244141,0.000610352,0.0161743
0.972,-0.00915527,-0.00518799,0.00518799,0.00671387
0.978,-0.00610352,-0.00488281,0,0
0.984,-0.010376,-0.00427246,-0.00610352,0.00366211
0.99,-0.0152588,-0.00366211,0.00244141,0.0137329
0.996,0.00518799,-0.00396729,-0.0112915,0.00915527
1.002,-0.00213623,-0.00640869,0.00305176,0.00793457
1.008,-0.0131226,-0.00335693,-0.00549316,0.00976563
1.014,-0.0161743,-0.00762939,-0.00213623,0.00946045
1.02,-0.00732422,-0.00183105,-0.000305176,0.00152588
1.026,-0.00183105,-0.00335693,0.00854492,0.0137329
1.032,-0.00762939,-0.00274658,-0.00183105,0.0231934
1.038,-0.00823975,-0.00518799,0.00366211,0.0146484
1.044,0.00183105,-0.00579834,-0.00335693,-0.00244141
1.05,-0.00762939,-0.00518799,-0.0152588,-0.0161743
1.056,-0.0137329,-0.00793457,-0.00427246,-0.0210571
1.062,-0.00854492,-0.0012207,0.00366211,-0.00762939
1.068,-0.00823975,-0.00457764,0.00244141,0.0100708
1.074,-0.000610352,-0.00244141,0.00793457,0.0448608
1.08,-0.00335693,-0.0012207,-0.0012207,0.0247192
1.086,-0.0137329,-0.00427246,-0.0119019,0.00549316
1.092,-0.00640869,-0.000305176,-0.00427246,0.0088501
1.098,-0.0128174,-0.0088501,0,0.00701904
1.104,-0.00152588,-0.00274658,0.00610352,0.00579834
1.11,-0.00366211,-0.00427246,-0.00549316,0.00518799
1.116,-0.00732422,-0.00183105,-0.00305176,0.00518799
1.122,-0.00915527,-0.00274658,-0.00244141,0.0100708
1.128,-0.00610352,-0.00579834,0.00305176,0.000915527
1.134,-0.000305176,0.000610352,0.00732422,0.00518799
1.14,-0.0012207,-0.00244141,-0.0112915,0.010376
1.146,-0.00335693,-0.00549316,0.00549316,0.00854492
1.152,-0.00732422,-0.00732422,-0.0152588,0.0106812
1.158,-0.00640869,-0.00244141,0.00213623,0.00671387
1.164,-0.00488281,-0.000915527,0.00244141,0.00549316
1.17,-0.010376,-0.00183105,-0.000305176,0.00671387
1.176,-0.0158691,-0.00366211,-0.0247192,0.00793457
1.182,0.00335693,-0.00518799,-0.0088501,0.00579834
1.188,0,0.000305176,0.0012207,0.00549316
1.194,-0.010376,-0.00427246,0.00823975,-0.00335693
1.2,-0.00762939,-0.000610352,0.00549316,0.0100708
1.206,-0.0158691,-0.00244141,-0.0231934,0.00854492
1.212,0.0106812,-0.00152588,-0.00335693,0.0109863
1.218,-0.00946045,-0.00366211,0.00610352,0.0134277
1.224,-0.010376,-0.00244141,-0.0012207,0.010376
1.23,-0.0109863,-0.00701904,-0.00244141,0.00274658
1.236,-0.00854492,-0.00427246,0.00488281,0.00610352
1.242,0.0012207,-0.00335693,0.00518799,0.00854492
1.248,-0.00518799,-0.00518799,-0.0222778,0.00793457
1.254,-0.0100708,-0.00213623,-0.0100708,0.00427246
1.26,0.00183105,-0.00213623,0.00305176,0.00152588
1.266,0.00366211,0.00152588,0.0088501,0.0100708
1.272,-0.00823975,0,-0.00305176,0.0164795
1.278,-0.0134277,-0.00549316,-0.00457764,-0.00427246
1.284,-0.00854492,-0.00671387,-0.00396729,0.00518799
1.29,-0.00366211,-0.00427246,0.00213623,0.017395
1.296,-0.0158691,-0.00396729,0.00854492,-0.000915527
1.302,-0.0088501,-0.00854492,-0.0140381,-0.00671387
1.308,0.000915527,-0.00152588,-0.00549316,0.0115967
1.314,0.00549316,-0.00152588,-0.000915527,0.0088501
1.32,-0.0143433,-0.000915527,0.00854492,0.012207
1.326,-0.0109863,-0.00213623,-0.0100708,0.0143433
1.332,-0.00762939,-0.00457764,-0.000915527,0.00427246
1.338,-0.00701904,-0.00427246,0.00183105,0.00366211
1.344,-0.00427246,-0.00183105,0.00549316,0.00793457
1.35,-0.00976563,-0.00213623,0.0012207,0.0149536
1.356,-0.00488281,-0.00305176,-0.00366211,0.00427246
1.362,-0.00518799,-0.00457764,-0.00732422,0.00488281
1.368,-0.000305176,0.000915527,-0.00457764,0.00823975
1.374,-0.00854492,-0.00427246,0.00335693,0.00549316
1.38,-0.0100708,-0.00396729,0.00366211,0.00579834
1.386,-0.00518799,-0.00305176,-0.00244141,0.00701904
1.392,-0.00305176,-0.00610352,-0.00793457,0.00762939
1.398,-0.00671387,-0.00640869,-0.00213623,0.00396729
1.404,-0.00549316,-0.00335693,-0.000610352,0.00488281
1.41,-0.00701904,-0.00396729,-0.00152588,0.0119019
1.416,-0.00305176,-0.00549316,-0.00183105,0.0106812
1.422,-0.0177002,-0.00671387,-0.00823975,-0.00823975
1.428,0.0088501,-0.00366211,-0.00732422,0.00488281
1.434,-0.0109863,-0.00183105,0.00183105,0.0161743
1.44,-0.012207,0.00152588,0.00823975,0.015564
1.446,-0.0100708,-0.00274658,0.00732422,0.00854492
1.452,-0.0112915,-0.00396729,-0.00457764,0.00274658
1.458,-0.00274658,-0.00274658,-0.00213623,0.00793457
1.464,0.00244141,-0.000610352,-0.00762939,0.0137329
1.47,-0.0189209,-0.0125122,-0.0128174,0.00640869
1.476,-0.00976563,-0.00366211,0.000610352,0.00274658
1.482,-0.00640869,-0.0012207,-0.0012207,0.00701904
1.488,-0.0012207,-0.000915527,0.00183105,0.00793457
1.494,-0.00366211,0.000915527,0.00274658,0.00518799
1.5,-0.0131226,-0.00213623,-0.00183105,0.0161743
1.506,-0.00823975,-0.00335693,0.00152588,0.00732422
1.512,-0.0112915,-0.00579834,-0.0012207,0.0106812
1.518,-0.00854492,-0.00335693,-0.000610352,0.0125122
1.524,-0.00427246,-0.00305176,0.000915527,-0.00396729
1.53,0.00213623,-0.00396729,-0.00274658,-0.00518799
1.536,-0.00640869,-0.00152588,0.00457764,0.0180054
1.542,-0.00610352,-0.00396729,-0.00762939,0.00518799
1.548,-0.0115967,-0.00579834,-0.0012207,0.00854492
1.554,-0.0100708,-0.00610352,-0.00305176,0.0115967
1.56,-0.00610352,-0.00518799,-0.00244141,0.00701904
1.566,0.0012207,-0.00244141,-0.000610352,0.000610352
1.572,-0.00518799,-0.00579834,-0.00274658,0.00610352
1.578,-0.00671387,-0.00183105,-0.00640869,0.0189209
1.584,-0.0125122,-0.000610352,-0.00183105,0.0100708
1.59,-0.0115967,-0.00793457,0,0.00396729
1.596,0.0137329,-0.00579834,-0.00366211,-0.00244141
1.602,-0.00946045,-0.0012207,-0.00274658,0.00671387
1.608,-0.00946045,-0.00152588,-0.00549316,0.0125122
1.614,-0.00823975,0.000305176,-0.000915527,0.00976563
1.62,-0.00732422,-0.00671387,0.000305176,0.00915527
1.626,-0.0134277,-0.00335693,0.00793457,0.0262451
1.632,-0.00396729,-0.00518799,0.00335693,0.0283813
1.638,-0.00762939,-0.00854492,-0.0119019,-0.0012207
1.644,-0.00183105,-0.00518799,-0.00823975,-0.0241089
1.65,-0.00610352,-0.00152588,-0.00152588,-0.0161743
1.656,-0.00701904,-0.000915527,0.0128174,-0.0238037
1.662,-0.00579834,-0.00244141,-0.00396729,-0.000915527
1.668,-0.00701904,-0.00244141,-0.00793457,0.0354004
1.674,-0.00457764,-0.0012207,-0.000610352,0.0332642
1.68,-0.00457764,-0.00213623,-0.00488281,0.0247192
1.686,-0.00518799,-0.00518799,0.0012207,0.0012207
1.692,-0.00793457,-0.00457764,-0.017395,-0.000610352
1.698,-0.00549316,-0.00427246,0.00183105,0.0109863
1.704,-0.00701904,-0.00518799,0.00274658,0.0131226
1.71,-0.00640869,-0.00488281,-0.000305176,0.00762939
1.716,-0.0125122,-0.00671387,-0.0106812,0.00305176
1.722,-0.0112915,-0.00671387,0.00549316,0.0012207
1.728,-0.00305176,-0.00213623,-0.00183105,0.00457764
1.734,-0.00274658,-0.00305176,-0.0222778,0.0149536
1.74,-0.0109863,-0.00671387,0.00793457,0.00305176
1.746,0.00854492,-0.00335693,0.00549316,-0.000915527
1.752,-0.00183105,-0.00640869,-0.00610352,0.00305176
1.758,-0.0149536,-0.00549316,-0.0112915,0.00518799
1.764,-0.0112915,-0.00366211,0.0106812,0.0119019
1.77,-0.00640869,-0.00427246,-0.00579834,0.0161743
1.776,-0.00915527,-0.00640869,-0.00610352,0.00396729
1.782,-0.00549316,-0.00274658,0.000610352,0.00274658
1.788,-0.00976563,-0.00274658,-0.00915527,0.012207
1.794,-0.00915527,0,-0.000610352,0.0106812
1.8,-0.00671387,-0.00152588,0.00335693,-0.00518799
1.806,-0.00274658,-0.00183105,0,0.00183105
1.812,-0.00671387,-0.00915527,-0.00396729,0.00854492
1.818,-0.00305176,-0.00274658,0.00213623,0.0109863
1.824,-0.00396729,-0.00366211,0.00823975,0.0106812
1.83,-0.00823975,-0.00549316,-0.0216675,0.00579834
1.836,-0.00305176,-0.00396729,-0.00274658,0.0012207
1.842,-0.00335693,0.000610352,0.00915527,0.0088501
1.848,-0.00793457,-0.00335693,0.000915527,0.00976563
1.854,-0.0109863,-0.00305176,-0.00244141,0.0100708
1.86,-0.0109863,-0.000915527,0.00671387,0.00579834
1.866,-0.00427246,-0.00640869,-0.00701904,0.0100708
1.872,0.00183105,-0.00305176,0,0.0119019
1.878,-0.00976563,-0.00518799,0.000915527,0.00701904
1.884,-0.00518799,0,-0.00213623,0.00549316
1.89,-0.00762939,-0.00671387,-0.00213623,0.00671387
1.896,-0.0109863,-0.00457764,-0.00183105,0.0012207
1.902,0.00335693,-0.00396729,0.00335693,0.00427246
1.908,-0.00701904,-0.00274658,-0.0146484,0.000305176
1.914,-0.00793457,-0.00579834,-0.0088501,0.00946045
1.92,-0.000915527,-0.00274658,0.00335693,0.00610352
1.926,-0.0161743,-0.00518799,0.00518799,0.00488281
1.932,-0.0131226,-0.00427246,-0.00396729,-0.00213623
1.938,-0.00274658,-0.00518799,-0.00488281,0.012207
1.944,-0.0088501,-0.00366211,-0.00854492,0.0164795
1.95,0,-0.00213623,-0.0012207,0.0125122
1.956,-0.0125122,-0.00396729,0.00488281,0.00732422
1.962,-0.0088501,-0.0012207,-0.000610352,0.00915527
1.968,-0.00732422,-0.00427246,0.00244141,0.00610352
1.974,-0.00762939,-0.00152588,-0.0115967,0.00213623
1.98,-0.0119019,-0.00549316,-0.00610352,0.0109863
1.986,-0.00213623,-0.00427246,-0.0140381,0.0131226
1.992,0.00335693,-0.00335693,0.0012207,-0.00457764
1.998,-0.00396729,-0.00427246,0.00213623,-0.00274658
2.004,-0.012207,0.000915527,0.00274658,0.0204468
2.01,-0.0012207,-0.000915527,-0.00152588,0.00610352
2.016,-0.00305176,-0.00640869,-0.00488281,0.00213623
2.022,-0.00854492,-0.00274658,-0.0012207,0.0146484
2.028,-0.00732422,-0.00488281,-0.0012207,0.00518799
2.034,-0.0119019,-0.000915527,-0.00793457,0.00274658
2.04,-0.0134277,-0.00274658,-0.00366211,0.0134277
2.046,0.0012207,0,0.00701904,0.0109863
2.052,-0.00762939,-0.00671387,0.0012207,0.00640869
2.058,-0.00762939,-0.00274658,-0.00701904,0.00793457
2.064,0.00946045,-0.00335693,-0.0128174,0.00823975
2.07,-0.00518799,-0.00213623,0.00793457,0.00610352
2.076,-0.00976563,-0.00457764,-0.00335693,0.00915527
2.082,-0.0140381,-0.00488281,-0.000305176,0.00213623
2.088,0.00213623,-0.00732422,-0.00671387,0.00396729
2.094,-0.00152588,-0.00701904,-0.00640869,0.0128174
2.1,-0.0115967,-0.00366211,-0.0109863,0.0149536
2.106,-0.000305176,-0.00518799,-0.000610352,0.00366211
2.112,-0.00915527,-0.0012207,-0.00457764,-0.000305176
2.118,-0.0131226,-0.00732422,-0.00366211,0.00732422
2.124,-0.00488281,-0.00427246,-0.00579834,0.00549316
2.13,-0.0140381,-0.00396729,-0.00427246,0.00732422
2.136,-0.00518799,-0.00579834,-0.00549316,0.00671387
2.142,-0.0134277,-0.00701904,0.000305176,0.0140381
2.148,0.00762939,0.00152588,0.012207,0.00701904
2.154,-0.0100708,-0.000610352,0.00366211,-0.000305176
2.16,0.0012207,-0.00518799,-0.0238037,0.000610352
2.166,-0.0112915,-0.0088501,-0.0100708,0.00701904
2.172,-0.012207,-0.0088501,0,0.0143433
2.178,-0.0137329,-0.00518799,0.0088501,0.0149536
2.184,-0.00915527,-0.00488281,0.00701904,0.0106812
2.19,0.00427246,-0.00396729,-0.00152588,0.00457764
2.196,-0.00335693,0,-0.0125122,0.0012207
2.202,-0.00732422,-0.00427246,0.000610352,0.0137329
2.208,-0.00793457,-0.00152588,0.00305176,0.0100708
2.214,-0.00213623,-0.00396729,-0.00305176,0.00152588
2.22,-0.00549316,-0.00518799,-0.00366211,0.0125122
2.226,-0.000305176,-0.00305176,-0.00518799,0.0213623
2.232,-0.00671387,-0.00488281,0.00427246,0.0143433
2.238,-0.0180054,-0.00671387,0.00335693,-0.010376
2.244,-0.00549316,0.000305176,-0.00701904,-0.0158691
2.25,-0.00610352,-0.00213623,0.00793457,-0.0143433
2.256,-0.000305176,-0.00366211,-0.0189209,0.000305176
2.262,-0.00549316,-0.00488281,-0.00366211,0.0088501
2.268,-0.0100708,-0.00396729,0.000610352,0.0289917
2.274,0.00488281,-0.0012207,0.00244141,0.0247192
2.28,-0.00762939,-0.00152588,-0.00488281,0.015564
2.286,-0.0140381,-0.00305176,0.00701904,0.00854492
2.292,-0.00549316,-0.00274658,0.00518799,0.00579834
2.298,-0.00457764,-0.000610352,-0.00701904,0.00488281
2.304,-0.00183105,-0.00183105,0.000305176,0.00183105
2.31,-0.0109863,-0.00366211,-0.000915527,-0.00213623
2.316,-0.0149536,-0.00366211,-0.000915527,0.00823975
2.322,-0.0158691,-0.00335693,-0.00579834,0.00701904
2.328,0.000610352,-0.00152588,0.0012207,0.00305176
2.334,-0.0088501,-0.00701904,-0.00915527,0.00640869
2.34,0.00762939,-0.00183105,-0.00396729,0.00823975
2.346,-0.0109863,-0.00244141,-0.00274658,0.0152588
2.352,-0.0088501,-0.00244141,0.00793457,0.00976563
2.358,-0.00366211,0.000915527,-0.00701904,0.00793457
2.364,-0.0140381,-0.00701904,-0.0106812,-0.0012207
2.37,0.0143433,-0.00549316,0.00427246,0.00183105
2.376,-0.00518799,-0.00274658,0.0012207,0.0210571
2.382,-0.0323486,-0.00640869,-0.010376,0.00366211
2.388,-0.00488281,-0.00305176,0.00579834,-0.00579834
2.394,-0.00335693,-0.00488281,0.00457764,0.0137329
2.4,0.00427246,-0.00335693,-0.0115967,0.010376
2.406,-0.0158691,-0.00335693,-0.00274658,0.0219727
2.412,-0.0012207,-0.00671387,0.00579834,0.00152588
2.418,-0.00305176,-0.00640869,0.00518799,-0.00335693
2.424,-0.00915527,-0.00457764,-0.0210571,0.00488281
2.43,-0.0146484,-0.00274658,-0.00640869,0.0119019
2.436,-0.00976563,-0.00213623,0.00457764,0.0125122
2.442,-0.00396729,-0.00366211,0.00305176,0.0115967
2.448,0.0012207,-0.00427246,-0.00579834,0.0115967
2.454,-0.00152588,-0.00183105,-0.00854492,0.00488281
2.46,-0.0183105,-0.00396729,-0.0134277,0.00793457
2.466,-0.00946045,-0.0012207,0.00518799,0.0198364
2.472,-0.00244141,-0.00732422,0.00610352,0.00183105
2.478,-0.00274658,-0.00152588,0.00427246,-0.00427246
2.484,-0.0140381,-0.00335693,-0.0158691,0.0115967
2.49,-0.00854492,-0.00244141,-0.00305176,0.00396729
2.496,-0.00579834,-0.00640869,0.00396729,0.00244141
2.502,-0.010376,-0.00427246,-0.00518799,0.010376
2.508,-0.00213623,-0.00305176,0.00518799,0.0125122
2.514,-0.00244141,-0.00305176,0.00305176,0.00915527
2.52,-0.00854492,-0.00549316,-0.00579834,0.00762939
2.526,-0.0112915,-0.00305176,-0.0106812,0.00610352
2.532,-0.00213623,-0.00579834,-0.000915527,0.00915527
2.538,-0.00640869,-0.00305176,0.00396729,0.00976563
2.544,-0.00762939,-0.00518799,-0.0115967,0.00152588
2.55,-0.00671387,-0.00823975,0.000305176,0.0112915
2.556,-0.00213623,0.00366211,0.00579834,0.0112915
2.562,-0.00671387,-0.00701904,0.00274658,0
2.568,-0.00366211,-0.00427246,-0.00579834,0.0106812
2.574,-0.00946045,-0.00732422,-0.00579834,0.00518799
2.58,-0.00640869,0.000305176,-0.00335693,0.0112915
2.586,-0.0100708,-0.00335693,-0.00396729,0.0149536
2.592,-0.00823975,-0.00183105,-0.00396729,-0.00396729
2.598,-0.00579834,-0.00701904,-0.00793457,0.00701904
2.604,-0.0112915,-0.00549316,0.00610352,0.0140381
2.61,-0.00152588,0.000610352,-0.00183105,0.0177002
2.616,-0.0088501,-0.00549316,-0.00823975,0.0125122
2.622,-0.00274658,-0.00427246,0.000915527,-0.00457764
2.628,-0.00457764,-0.00213623,0.00671387,-0.0012207
2.634,-0.0109863,-0.00457764,-0.012207,0.00579834
2.64,-0.00915527,-0.00305176,-0.0088501,0.012207
2.646,0.00244141,-0.00366211,0.000305176,0.00579834
2.652,-0.0106812,-0.00183105,0.0125122,0.00305176
2.658,-0.00732422,-0.000305176,0.00244141,0.00976563
2.664,-0.0140381,-0.00518799,0,0.00793457
2.67,-0.017395,-0.00396729,0.00152588,0.0112915
2.676,0.00793457,-0.00488281,-0.0195313,0.0128174
2.682,-0.0100708,-0.00427246,0.00244141,-0.000305176
2.688,-0.0219727,-0.00335693,0.00976563,0.00305176
2.694,0.00579834,-0.00610352,-0.00610352,0.00518799
2.7,0.000610352,-0.00183105,-0.00549316,0.000305176
2.706,-0.00946045,0.000915527,-0.00244141,0.00549316
2.712,-0.0143433,-0.00305176,0.0012207,0.0161743
2.718,-0.0106812,-0.00152588,0.00213623,0.00549316
2.724,-0.00579834,-0.00671387,0.00274658,0.00640869
2.73,-0.00183105,-0.00854492,-0.010376,0.00915527
2.736,-0.00213623,-0.00366211,0.000305176,0.00366211
2.742,-0.00549316,-0.00549316,-0.00793457,0.0088501
2.748,-0.0134277,0.000915527,0.000915527,0.015564
2.754,-0.00671387,-0.00305176,-0.000610352,0.00640869
2.76,-0.0088501,-0.00213623,-0.000305176,-0.00457764
2.766,0.00457764,-0.00457764,0.00610352,0.00915527
2.772,-0.0140381,-0.00640869,0.00244141,0.0131226
2.778,-0.00732422,-0.00549316,-0.0213623,0.00946045
2.784,-0.00701904,0.000610352,-0.00610352,0.0112915
2.79,0.0115967,-0.00366211,-0.000915527,0.0109863
2.796,-0.012207,-0.000610352,0.015564,0.00946045
2.802,-0.00854492,-0.00396729,0.0012207,0.020752
2.808,-0.0112915,-0.00640869,-0.00488281,0.00671387
2.814,-0.0256348,-0.00701904,-0.00335693,0.00579834
2.82,0.0134277,-0.00457764,-0.0115967,-0.0189209
2.826,0.00732422,-0.00152588,-0.00610352,-0.0216675
2.832,-0.0183105,-0.00152588,0.00518799,0.00579834
2.838,-0.0222778,-0.00183105,0.00183105,0.0244141
2.844,0.00701904,-0.00396729,0.00305176,0.0280762
2.85,-0.0128174,-0.00488281,-0.000915527,0.0177002
2.856,-0.0109863,-0.00396729,-0.00335693,0.0109863
2.862,-0.00610352,-0.00335693,-0.00305176,0.00701904
2.868,-0.0112915,-0.00762939,-0.0109863,0.00457764
2.874,-0.00335693,-0.00579834,-0.00396729,0.00671387
2.88,0.00579834,-0.00640869,0.000610352,0.00305176
2.886,-0.00518799,-0.000915527,0.00579834,0.0134277
2.892,-0.0143433,-0.00152588,0.0012207,0.00976563
2.898,-0.00854492,-0.00579834,-0.00488281,-0.00457764
2.904,-0.0140381,-0.00579834,-0.0106812,0.00335693
2.91,-0.00335693,-0.00152588,0,0.000610352
2.916,-0.00549316,-0.00366211,0.00579834,0.00518799
2.922,-0.00427246,-0.00152588,-0.00610352,0.00915527
2.928,-0.000915527,-0.00274658,-0.00305176,0.00946045
2.934,-0.00671387,-0.00396729,0.0109863,0.00976563
2.94,-0.0088501,-0.00488281,0.00457764,0.00915527
2.946,0.000915527,-0.000915527,-0.00640869,0.0201416
2.952,-0.00915527,-0.00274658,-0.00610352,0.00701904
2.958,-0.0137329,-0.00366211,0.00671387,0
2.964,-0.0100708,-0.00427246,0.00946045,0.012207
2.97,0.0161743,-0.00366211,-0.0283813,0.00518799
2.976,-0.0112915,-0.00518799,-0.010376,0.00823975
2.982,-0.00701904,-0.000610352,0.0088501,0.0161743
2.988,-0.00823975,0.000915527,0.0131226,0.00244141
2.994,0.000305176,-0.00762939,-0.0161743,-0.00671387
3,-0.00701904,-0.0012207,-0.00152588,0.00946045
3.006,-0.00183105,-0.00549316,-0.00549316,0.0115967
3.012,-0.015564,-0.00335693,0.00549316,0.0109863
3.018,-0.0119019,-0.00701904,-0.00366211,0.0125122
3.024,-0.00976563,-0.00335693,-0.0088501,0.0115967
3.03,-0.0119019,-0.00213623,-0.00549316,-0.00152588
3.036,-0.0119019,-0.00366211,0.000915527,0.0131226
3.042,0.00915527,-0.00793457,0.00274658,-0.00396729
3.048,-0.00518799,-0.00244141,-0.00579834,-0.0106812
3.054,-0.0137329,-0.00305176,-0.00701904,0.00518799
3.06,-0.00152588,-0.00244141,0,0.0143433
3.066,-0.0158691,-0.000610352,0.00732422,0.012207
3.072,0.000305176,-0.000915527,0.00152588,0.0167847
3.078,-0.00762939,-0.00457764,-0.00823975,0.00762939
3.084,-0.00701904,-0.00366211,-0.0161743,0.00274658
3.09,-0.0119019,-0.00457764,0.00427246,0.010376
3.096,-0.00183105,-0.00671387,0.000305176,0.00823975
3.102,-0.00610352,-0.000915527,0.000610352,0.00183105
3.108,-0.00335693,-0.00640869,0.00549316,0.00152588
3.114,-0.00762939,-0.00671387,-0.00610352,0.0140381
3.12,-0.0210571,-0.00488281,-0.0088501,0.0158691
3.126,-0.00457764,-0.00274658,-0.00244141,-0.00335693
3.132,-0.00457764,-0.00427246,-0.00518799,-0.0088501
3.138,-0.00671387,0,-0.0119019,0.0125122
3.144,-0.0146484,-0.00183105,0.00946045,0.0164795
3.15,0.00396729,-0.00396729,0.00915527,0.0125122
3.156,0.0128174,-0.00244141,-0.00488281,0.00610352
3.162,-0.00793457,-0.00366211,-0.00183105,0.00274658
3.168,-0.0125122,-0.00640869,-0.0134277,0.00518799
3.174,-0.00732422,-0.00518799,-0.00213623,0.00671387
3.18,-0.0167847,-0.00671387,0.00183105,0.00518799
3.186,-0.0125122,-0.00244141,0.00305176,0.0137329
3.192,-0.00396729,-0.000610352,-0.0112915,0.00793457
3.198,0.00610352,-0.00457764,-0.00701904,-0.00671387
3.204,-0.00640869,0.000610352,-0.000610352,-0.00427246
3.21,-0.00793457,0.00305176,0.00610352,0.0128174
3.216,-0.0164795,-0.00244141,0.00427246,0.020752
3.222,0.0012207,-0.00671387,-0.0143433,0.00366211
3.228,-0.00946045,-0.00610352,-0.00488281,0.00579834
3.234,0,-0.00701904,0.000305176,-0.00244141
3.24,-0.0167847,-0.00305176,-0.012207,0.00640869
3.246,-0.00335693,0.000305176,-0.00183105,0.0146484
3.252,-0.0149536,0.000305176,0.0100708,0.0244141
3.258,-0.00427246,-0.00213623,0.00457764,0.0134277
3.264,0.0244141,-0.00396729,0.0012207,-0.00396729
3.27,-0.00762939,-0.00854492,-0.00488281,0.00213623
3.276,-0.0137329,-0.00183105,-0.00610352,0.0115967
3.282,-0.0170898,-0.00152588,0.00732422,0.00946045
3.288,0.00549316,-0.00183105,-0.00671387,-0.00213623
3.294,-0.0125122,-0.00793457,-0.0088501,-0.00579834
3.3,-0.0195313,-0.00335693,0.00579834,0.00488281
3.306,0.0012207,-0.00579834,-0.000305176,0.0152588
3.312,-0.00854492,-0.00335693,-0.00915527,0.0106812
3.318,0.000610352,-0.00549316,0.00457764,0.00793457
3.324,-0.0109863,-0.00366211,-0.00366211,0.0088501
3.33,-0.00274658,-0.000305176,0.000305176,0.0167847
3.336,-0.0088501,-0.00152588,0.00366211,0.0158691
3.342,0.000610352,-0.00427246,-0.00335693,-0.0012207
3.348,-0.00793457,-0.00305176,0.00274658,0.000610352
3.354,-0.00762939,-0.00549316,-0.00518799,0.00213623
3.36,0.00457764,-0.00213623,0.00366211,0.00457764
3.366,-0.00762939,-0.00366211,-0.00579834,0.00823975
3.372,-0.0146484,-0.00640869,-0.0106812,0.0247192
3.378,-0.0125122,-0.00549316,0.0012207,0.0296021
3.384,-0.00183105,-0.00335693,0.0012207,0.0088501
3.39,-0.0100708,-0.00305176,-0.00244141,-0.0143433
3.396,0.00457764,-0.00335693,0.00274658,-0.0186157
3.402,-0.000915527,-0.00579834,-0.00549316,-0.020752
3.408,-0.0143433,-0.00274658,-0.00549316,-0.00152588
3.414,-0.00823975,-0.00274658,0.00274658,0.0253296
3.42,-0.00579834,-0.00610352,-0.00244141,0.0448608
3.426,-0.012207,-0.00396729,-0.00549316,0.0180054
3.432,0.00152588,-0.00427246,0.00213623,0.00366211
3.438,-0.00549316,-0.00335693,0.00152588,-0.000610352
3.444,-0.00732422,-0.00335693,-0.012207,0.0088501
3.45,-0.000915527,-0.00396729,-0.00396729,0.0100708
3.456,0.00427246,-0.00183105,0.00152588,-0.000305176
3.462,-0.0131226,-0.00457764,0.00549316,0.00701904
3.468,-0.00610352,-0.00244141,0.00396729,0.00762939
3.474,-0.0234985,-0.00183105,-0.0170898,0.00762939
3.48,0.00244141,-0.00640869,-0.00457764,0.00732422
3.486,0.00518799,-0.00946045,-0.000915527,-0.00366211
3.492,-0.0146484,-0.00213623,0.00640869,0.00305176
3.498,-0.00549316,-0.00366211,-0.00671387,0.012207
3.504,-0.00488281,0.000610352,0.00335693,0.0109863
3.51,-0.00671387,-0.00183105,-0.00152588,0.00610352
3.516,-0.00366211,-0.00610352,-0.00427246,0.00366211
3.522,-0.0210571,-0.00518799,0.00366211,0.00854492
3.528,-0.00579834,-0.00305176,0.00518799,0.015564
3.534,0.0012207,-0.00488281,-0.00457764,0.0119019
3.54,-0.012207,-0.0012207,-0.00549316,0.000915527
3.546,-0.00305176,-0.00518799,-0.0128174,0.00213623
3.552,-0.0198364,-0.00366211,0.00549316,0.00976563
3.558,0.00579834,-0.00335693,0.00762939,0.0125122
3.564,-0.000610352,-0.00274658,0.00183105,0.00579834
3.57,-0.00518799,-0.00640869,-0.00488281,0.00823975
3.576,-0.0137329,-0.00366211,-0.0143433,0.00762939
3.582,-0.0146484,-0.00183105,0.00152588,0.0119019
3.588,-0.00823975,-0.00610352,0.00274658,0.00396729
3.594,0.0125122,-0.00244141,-0.00335693,-0.00671387
3.6,-0.00427246,-0.00640869,0.00396729,0.0088501
3.606,-0.0088501,-0.00305176,-0.00152588,0.0088501
3.612,-0.0177002,-0.00183105,0.00183105,0.015564
3.618,-0.00213623,-0.00579834,-0.0186157,0.0088501
3.624,-0.010376,-0.00305176,0.00457764,0.00640869
3.63,-0.00427246,-0.00366211,0.00213623,-0.00427246
3.636,-0.00915527,-0.00366211,-0.0100708,0.0119019
3.642,-0.00457764,-0.00396729,-0.00396729,0.00305176
3.648,-0.00274658,-0.00152588,-0.00396729,0.00854492
3.654,-0.00427246,-0.00579834,0.00396729,0.00732422
3.66,-0.0109863,-0.00427246,0.00335693,0.00396729
3.666,-0.0177002,-0.00640869,-0.00671387,0.00701904
3.672,-0.00488281,-0.00457764,-0.00152588,-0.000305176
3.678,-0.0140381,-0.00549316,-0.00213623,0.00915527
3.684,0.000915527,0.00183105,0.00152588,0.0167847
3.69,-0.000610352,0.00213623,-0.00152588,0.0112915
3.696,-0.012207,-0.00366211,-0.00976563,0.00671387
3.702,-0.00854492,-0.00610352,-0.00183105,0.00427246
3.708,-0.00823975,-0.00457764,-0.000915527,0.00488281
3.714,-0.00549316,-0.00701904,-0.00732422,0.00518799
3.72,-0.00671387,-0.00366211,0.00305176,0.012207
3.726,-0.00732422,-0.000610352,0.0100708,-0.0012207
3.732,-0.0115967,-0.00549316,-0.0125122,0.000610352
3.738,-0.000305176,-0.00335693,-0.0146484,0.00854492
3.744,0.00274658,-0.00183105,0.0112915,0.017395
3.75,0.00976563,-0.00305176,-0.0180054,-0.000610352
3.756,-0.00976563,-0.00488281,0.00427246,0.0119019
3.762,-0.0146484,-0.00366211,-0.00152588,0.00244141
3.768,-0.0119019,-0.00488281,0.00274658,0.00671387
3.774,-0.0088501,-0.00274658,0.000610352,0.0177002
3.78,-0.0125122,-0.00762939,0.0012207,0.00640869
3.786,0.00427246,-0.00488281,-0.00701904,-0.000915527
3.792,0.00244141,-0.00640869,-0.00946045,0.0146484
3.798,-0.00671387,-0.00305176,0.00152588,0.00823975
3.804,-0.0149536,-0.00366211,0.000305176,0.00762939
3.81,-0.00732422,-0.000610352,-0.00488281,0.0109863
3.816,-0.000915527,0.0012207,-0.00946045,0.00976563
3.822,0.000610352,-0.00244141,0,0.00335693
3.828,-0.00793457,-0.00396729,-0.00549316,0.00305176
3.834,-0.00671387,-0.00488281,-0.00701904,0.0106812
3.84,-0.00915527,-0.00335693,0.00518799,0.00854492
3.846,-0.00671387,-0.00579834,-0.0012207,-0.00396729
3.852,-0.00732422,-0.00518799,-0.00640869,0.00274658
3.858,0,-0.00366211,0.0012207,0.00701904
3.864,-0.0134277,-0.00183105,-0.00518799,0.00640869
3.87,-0.00671387,-0.00213623,0,0.0112915
3.876,-0.0140381,-0.00549316,-0.000610352,0.00701904
3.882,-0.000305176,-0.00244141,0.000610352,0.00915527
3.888,-0.00701904,-0.00366211,0.00427246,0.000915527
3.894,-0.00701904,-0.00640869,-0.015564,-0.00152588
3.9,0.0134277,-0.00396729,-0.0119019,0.00549316
3.906,-0.00366211,-0.00213623,0.00549316,0.0119019
3.912,-0.0146484,-0.00671387,0,0.0137329
3.918,-0.0186157,-0.00701904,-0.00335693,0.0119019
3.924,-0.0170898,-0.00671387,0.00396729,0.00946045
3.93,0.00183105,-0.00701904,-0.010376,0.00701904
3.936,-0.00335693,-0.00427246,-0.00518799,0.00579834
3.942,-0.00762939,-0.00152588,0.00213623,0.00610352
3.948,0.000610352,-0.000915527,0.0128174,0.00579834
3.954,-0.00946045,-0.00244141,-0.000915527,0.00366211
3.96,-0.0140381,-0.00427246,-0.0115967,0.00915527
3.966,-0.00305176,-0.00244141,0.00946045,0.0100708
3.972,0,-0.00305176,0.00488281,0.0213623
3.978,-0.00335693,-0.00396729,-0.0183105,0.00732422
3.984,-0.00915527,-0.00762939,-0.00305176,0.00305176
3.99,-0.00854492,-0.00274658,0.00183105,-0.00671387
3.996,-0.0112915,-0.00518799,0.00976563,-0.0189209
4.002,-0.0189209,-0.00427246,0,-0.0146484
4.008,0.00427246,-0.000915527,-0.0109863,0.0115967
4.014,0.0119019,-0.00152588,-0.00518799,0.0299072
4.02,-0.0164795,-0.00732422,0.00213623,0.0332642
4.026,-0.0164795,0.000915527,0.000305176,0.0177002
4.032,-0.0112915,-0.00183105,0.00366211,0.0106812
4.038,-0.00518799,-0.00427246,-0.00732422,0.00427246
4.044,0.0012207,-0.00610352,-0.00549316,0.00549316
4.05,0.00915527,-0.00518799,0.00396729,0.0158691
4.056,-0.0112915,-0.00518799,0.00396729,-0.00213623
4.062,-0.00488281,-0.00549316,-0.000915527,-0.012207
4.068,-0.000915527,-0.00274658,-0.00366211,0.00579834
4.074,-0.0088501,-0.00274658,0.000305176,0.0112915
4.08,-0.0112915,-0.00244141,-0.00640869,0.0149536
4.086,-0.0109863,-0.000915527,-0.000610352,0.00549316
4.092,-0.00457764,-0.000305176,-0.00213623,0.0100708
4.098,-0.00610352,-0.00457764,-0.00518799,0.0143433
4.104,-0.00823975,-0.00274658,0.00152588,0.0115967
4.11,-0.00457764,-0.00457764,-0.00213623,0.0088501
4.116,-0.00274658,-0.00457764,-0.00549316,0.000305176
4.122,-0.00701904,-0.00457764,-0.00549316,0.00152588
4.128,-0.00335693,0.00457764,0.00579834,0.0140381
4.134,-0.00823975,-0.00762939,0.00335693,0.0146484
4.14,-0.0012207,-0.00518799,-0.0192261,0.000915527
4.146,-0.00701904,-0.00640869,-0.0119019,0.0109863
4.152,-0.0125122,-0.000915527,0.0088501,0.0131226
4.158,-0.00762939,0.00213623,0.0115967,0.0131226
4.164,-0.00610352,-0.00671387,0.00610352,-0.00823975
4.17,-0.0161743,-0.00396729,-0.0112915,-0.00640869
4.176,-0.00152588,-0.00152588,-0.00274658,0.00915527
4.182,0.0177002,-0.00152588,-0.00427246,0.0164795
4.188,-0.00640869,-0.00671387,-0.00335693,0.00671387
4.194,-0.0109863,0,-0.00335693,0.00518799
4.2,-0.0161743,-0.00640869,-0.00640869,0.0088501
4.206,-0.0100708,-0.00457764,-0.00793457,0.00732422
4.212,-0.00579834,-0.00244141,0.00396729,0.010376
4.218,-0.00976563,-0.000305176,0.00183105,0.00976563
4.224,-0.0012207,-0.0088501,-0.00305176,-0.000610352
4.23,0,-0.00305176,0.00366211,0.00732422
4.236,-0.0100708,-0.00335693,-0.00366211,0.0152588
4.242,-0.00701904,-0.0012207,0.00488281,0.00946045
4.248,0.000305176,-0.00366211,-0.00183105,-0.00183105
4.254,-0.00732422,-0.00610352,-0.00152588,-0.0012207
4.26,-0.00762939,-0.00488281,-0.00274658,0.00152588
4.266,-0.00640869,-0.00366211,-0.0143433,0.0164795
4.272,-0.0192261,-0.00640869,0.00457764,0.0128174
4.278,0.00610352,-0.00549316,0.00854492,0.00457764
4.284,0.00152588,-0.00213623,-0.0119019,0.00793457
4.29,-0.00793457,-0.00610352,-0.00946045,0.00610352
4.296,-0.00946045,-0.000305176,0.00823975,0.012207
4.302,-0.00793457,-0.00396729,0.00671387,0.00946045
4.308,-0.00671387,-0.00427246,-0.00793457,0.00946045
4.314,-0.00946045,-0.00152588,-0.00152588,0.00823975
4.32,-0.00915527,-0.00610352,-0.00244141,0.00427246
4.326,-0.00732422,0.00152588,0,0.00427246
4.332,-0.0204468,-0.00518799,0.00396729,0.00915527
4.338,0.00732422,-0.00366211,-0.0088501,0.0146484
4.344,0.00274658,-0.00579834,-0.0109863,-0.00396729
4.35,-0.0115967,-0.00640869,-0.000915527,-0.00640869
4.356,-0.00793457,-0.000610352,0.00518799,0.0131226
4.362,-0.015564,-0.00823975,-0.0106812,0.00946045
4.368,0.0012207,-0.00305176,-0.010376,0.00671387
4.374,0.00823975,-0.00732422,0.00213623,0.0125122
4.38,-0.00518799,-0.000915527,-0.00579834,0.010376
4.386,-0.0119019,-0.00305176,0.00335693,0.00549316
4.392,-0.0137329,-0.00274658,0.00213623,0.00610352
4.398,-0.00183105,-0.00366211,-0.00488281,0.00366211
4.404,-0.00335693,-0.00671387,-0.00152588,-0.00183105
4.41,-0.0146484,-0.00427246,0.000610352,0.00579834
4.416,-0.0189209,-0.00305176,-0.00457764,0.0106812
4.422,0.000610352,-0.00396729,0.00183105,0.0100708
4.428,-0.0100708,-0.00335693,-0.00213623,0.0161743
4.434,-0.0119019,-0.00305176,0.00183105,-0.00335693
4.44,0.000610352,-0.0012207,-0.00671387,0.00579834
4.446,0.00610352,-0.00152588,0.0012207,0.00396729
4.452,-0.000305176,-0.00305176,0.000610352,0.00579834
4.458,-0.00366211,0.000305176,-0.0161743,0.00946045
4.464,-0.0128174,-0.00671387,0.00244141,0.00274658
4.47,-0.0140381,0.000305176,0.00152588,0.0134277
4.476,0.00213623,-0.00579834,-0.00427246,0.0170898
4.482,-0.00244141,-0.00305176,0.00762939,0.0180054
4.488,0.00244141,-0.00305176,-0.00305176,0.00671387
4.494,-0.0152588,-0.00427246,0.00274658,-0.000305176
4.5,-0.0152588,-0.00732422,-0.00640869,0.00549316
4.506,-0.00976563,-0.00793457,-0.0088501,0.00671387
4.512,-0.00457764,-0.00305176,0.00213623,0.00579834
4.518,-0.00427246,-0.00274658,0.00274658,0.00427246
4.524,-0.0119019,-0.00183105,-0.00518799,0.00335693
4.53,0.00244141,-0.00366211,-0.00396729,0.0112915
4.536,-0.000610352,-0.000305176,-0.0170898,0.00823975
4.542,-0.0088501,-0.00396729,0.000305176,0.00946045
4.548,-0.0216675,-0.00274658,0.00518799,0.0106812
4.554,0.00396729,-0.000915527,0.00427246,-0.000305176
4.56,0.00335693,-0.00701904,-0.00183105,0.0100708
4.566,0.00183105,-0.00213623,-0.0088501,0.00488281
4.572,-0.0088501,-0.00457764,-0.0012207,0.0146484
4.578,-0.010376,-0.000305176,-0.00701904,0.0106812
4.584,-0.00854492,-0.00366211,-0.000305176,0.00640869
4.59,-0.00549316,-0.00213623,-0.00457764,0.00946045
4.596,-0.00793457,-0.00396729,0.0012207,-0.00152588
4.602,-0.00518799,-0.00457764,-0.00457764,0.0177002
4.608,-0.00305176,-0.00549316,-0.00549316,0.0213623
4.614,-0.0180054,-0.00366211,0.00213623,-0.00213623
4.62,0.00488281,-0.00762939,0.000305176,-0.00793457
4.626,-0.00152588,-0.00427246,0.010376,-0.0228882
4.632,0.00183105,-0.00518799,-0.0234985,-0.0088501
4.638,-0.00854492,-0.000915527,-0.0152588,0.00793457
4.644,-0.0088501,-0.0012207,0.00396729,0.0311279
4.65,-0.0112915,-0.00244141,0.00518799,0.057373
4.656,-0.00610352,-0.000915527,0.00549316,0.00244141
4.662,-0.00549316,-0.00579834,-0.00946045,-0.0186157
4.668,-0.00976563,-0.00457764,-0.00549316,0.0192261
4.674,0.0128174,-0.00274658,-0.00457764,-0.000610352
4.68,-0.00305176,-0.00396729,0.00335693,-0.0012207
4.686,-0.0158691,0,-0.00366211,0.0109863
4.692,-0.00915527,-0.00244141,0,0.0149536
4.698,-0.0143433,-0.00457764,0.000305176,0.0146484
4.704,0.00457764,-0.00366211,-0.00488281,0.00518799
4.71,-0.00793457,-0.00274658,-0.000305176,0.000305176
4.716,-0.0152588,-0.00213623,-0.000610352,0.00579834
4.722,-0.00396729,-0.000915527,-0.000305176,0.000305176
4.728,0.00213623,-0.00732422,-0.00152588,0.0088501
4.734,-0.00305176,0.000610352,-0.00335693,0.00549316
4.74,-0.0112915,-0.00518799,-0.00518799,0.00213623
4.746,-0.00823975,-0.0088501,-0.00976563,0.00518799
4.752,-0.0161743,-0.00244141,-0.00396729,0.0125122
4.758,0.00213623,0,0.0134277,0.0149536
4.764,-0.00732422,-0.00213623,-0.00854492,0.00335693
4.77,-0.0204468,-0.0012207,-0.00305176,-0.00152588
4.776,-0.00183105,-0.00732422,0,0.00274658
4.782,0.00518799,-0.00579834,-0.00396729,0.0115967
4.788,-0.00274658,-0.00213623,0.00579834,0.010376
4.794,-0.0161743,-0.00213623,-0.00427246,0.0115967
4.8,-0.00152588,-0.00549316,-0.00152588,0.00610352
4.806,0.000305176,-0.00671387,-0.000610352,0.0100708
4.812,-0.0106812,-0.00335693,0.00366211,0.0106812
4.818,-0.00549316,-0.00305176,-0.00823975,0.0119019
4.824,-0.00946045,-0.00549316,-0.00305176,0.00793457
4.83,-0.0177002,-0.010376,-0.0146484,0.00762939
4.836,-0.0137329,-0.00396729,-0.00579834,0.000610352
4.842,0.00244141,-0.00396729,0.00976563,0.00213623
4.848,0.0161743,-0.00152588,-0.00823975,0.00183105
4.854,-0.00457764,-0.00396729,0.00305176,0.00915527
4.86,-0.0201416,-0.00396729,0.00823975,0.0234985
4.866,-0.0119019,-0.00427246,-0.0012207,0.00488281
4.872,0.00457764,-0.00274658,-0.0119019,-0.010376
4.878,-0.00732422,-0.000915527,0.00518799,0.00396729
4.884,-0.0183105,-0.00213623,0.00183105,0.0183105
4.89,-0.00793457,-0.00427246,-0.00152588,0.0131226
4.896,0.00183105,-0.00335693,-0.00579834,0.00671387
4.902,-0.00427246,-0.00457764,-0.00213623,0.0112915
4.908,-0.00518799,-0.00549316,-0.00335693,0.0012207
4.914,-0.00427246,-0.00274658,-0.00427246,0.00152588
4.92,-0.00610352,-0.00579834,-0.0100708,0.00915527
4.926,-0.00549316,-0.00427246,0.010376,0.0134277
4.932,-0.0119019,0,0.00854492,0.0198364
4.938,-0.00793457,-0.00366211,-0.0164795,0.00976563
4.944,0.00732422,-0.000915527,-0.00244141,-0.00396729
4.95,-0.00701904,-0.00244141,-0.0012207,0.00488281
4.956,0.00396729,-0.00549316,-0.00244141,0.0128174
4.962,-0.00915527,-0.00427246,-0.00793457,0.0128174
4.968,-0.0119019,-0.00427246,-0.0012207,-0.0012207
4.974,-0.00762939,-0.00396729,0.00823975,0.00457764
4.98,-0.0115967,-0.00305176,0.000610352,0.012207
4.986,-0.0140381,-0.00366211,-0.00305176,0.00427246
4.992,-0.00640869,-0.00366211,-0.00701904,0.00976563
4.998,-0.0012207,-0.00396729,-0.00915527,0.0152588
5.004,-0.00213623,-0.000915527,0.0106812,0.0100708
5.01,-0.00640869,-0.00335693,-0.00335693,-0.00244141
5.016,-0.00946045,-0.0088501,-0.00671387,0.000610352
5.022,-0.00183105,-0.000305176,-0.000610352,0.0088501
5.028,-0.00305176,-0.00793457,-0.0109863,0.00549316
5.034,-0.00488281,0.000610352,0.00732422,0.00793457
5.04,-0.00732422,-0.00183105,-0.00946045,0.00610352
5.046,-0.00518799,-0.0119019,0.00457764,0.00518799
5.052,-0.00854492,-0.00274658,0.000610352,0.0125122
5.058,-0.00793457,-0.00701904,-0.00549316,0.00152588
5.064,-0.00579834,-0.00305176,0.00152588,0.00366211
5.07,-0.00549316,-0.00427246,0.00457764,0.0112915
5.076,-0.00305176,-0.00640869,-0.0231934,0.00549316
5.082,-0.00274658,-0.000915527,0.000305176,0.00701904
5.088,-0.00579834,-0.00213623,0.00671387,0.0125122
5.094,-0.00732422,-0.00213623,0.000915527,0.0158691
5.1,-0.0088501,-0.00610352,0.00427246,-0.00244141
5.106,-0.00396729,-0.00488281,-0.00244141,0.00213623
5.112,-0.0396729,-0.00610352,-0.00762939,0.0125122
5.118,0.017395,-0.00335693,-0.000610352,0.0177002
5.124,0.0244141,-0.00640869,-0.00823975,0.00457764
5.13,0.00274658,-0.000915527,0.000305176,0.00579834
5.136,-0.0167847,0.000305176,-0.00793457,0
5.142,-0.0299072,-0.00183105,-0.00335693,-0.00274658
5.148,-0.00976563,-0.00213623,0.00946045,0.0088501
5.154,-0.0115967,-0.0012207,0.00213623,0.0186157
5.16,-0.00549316,-0.00579834,-0.00793457,0.00854492
5.166,0.0170898,-0.00701904,-0.000610352,-0.00640869
5.172,-0.00335693,-0.00610352,-0.00488281,0.0109863
5.178,-0.0189209,0,0.00427246,0.0140381
5.184,-0.000610352,-0.000305176,0.0088501,0.0140381
5.19,-0.0180054,-0.00427246,0.0012207,0.0131226
5.196,0.00183105,-0.0088501,-0.0210571,-0.00213623
5.202,-0.00610352,-0.00427246,0.0012207,0.00732422
5.208,-0.00671387,-0.0012207,0.00274658,0.0100708
5.214,-0.00762939,-0.00640869,-0.00549316,0.0112915
5.22,-0.00732422,-0.00579834,-0.00183105,0.0140381
5.226,-0.0100708,-0.00274658,-0.00396729,0.00366211
5.232,-0.00305176,-0.000915527,0.00457764,0.0186157
5.238,-0.00640869,-0.00396729,0.00152588,0.0134277
5.244,-0.00610352,-0.00427246,-0.0119019,-0.000610352
5.25,-0.00854492,-0.00610352,0.00305176,-0.00976563
5.256,-0.00946045,-0.0012207,0.00457764,-0.0140381
5.262,-0.00518799,-0.00244141,-0.00671387,-0.00732422
5.268,-0.00793457,-0.00762939,-0.0158691,-0.00183105
5.274,-0.00274658,-0.000915527,0.00152588,0.0180054
5.28,0.0012207,-0.00366211,-0.00640869,0.0256348
5.286,-0.00518799,-0.00183105,0.0112915,0.0302124
5.292,-0.0146484,-0.00366211,0.00335693,0.0228882
5.298,-0.00335693,-0.00671387,-0.00701904,-0.000305176
5.304,-0.0119019,-0.00183105,-0.0128174,-0.00549316
5.31,0.0244141,-0.00946045,0.00366211,0.00823975
5.316,-0.00793457,-0.00366211,0.00244141,0.0158691
5.322,-0.0259399,-0.000915527,0.00457764,0.0134277
5.328,-0.00396729,0.00244141,-0.000610352,0.00183105
5.334,-0.0128174,-0.00946045,-0.0100708,0.000610352
5.34,-0.00976563,-0.00671387,0.00366211,0.0088501
5.346,-0.012207,-0.00305176,0.00793457,-0.000610352
5.352,-0.00854492,-0.00213623,0.00366211,0.00457764
5.358,0.00854492,0,-0.00732422,0.0152588
5.364,-0.0134277,-0.00366211,-0.00244141,-0.00274658
5.37,0.00274658,-0.00335693,-0.000610352,0.00640869
5.376,-0.00366211,-0.00427246,0.00518799,0.0164795
5.382,-0.00793457,-0.00366211,-0.00244141,0.0106812
5.388,-0.0109863,-0.00305176,-0.00671387,0.00701904
5.394,-0.0112915,-0.00640869,0.000305176,0.00671387
5.4,0.0125122,-0.00762939,-0.015564,-0.00305176
5.406,-0.00152588,-0.000610352,0.00640869,0.00762939
5.412,-0.0192261,0.00244141,0.00152588,0.0183105
5.418,-0.0228882,-0.00823975,-0.0109863,0.0164795
5.424,-0.000610352,-0.00213623,-0.00213623,-0.00274658
5.43,-0.00427246,-0.00701904,0.000610352,0.00518799
5.436,-0.00366211,-0.00213623,-0.00640869,0.00366211
5.442,-0.0134277,-0.00183105,0.00549316,0.0149536
5.448,-0.00671387,-0.00274658,0.00335693,0.0119019
5.454,0.00762939,-0.00610352,-0.0131226,-0.000610352
5.46,-0.0198364,-0.00671387,-0.00274658,0.00183105
5.466,0.00183105,-0.00793457,0.00183105,0.010376
5.472,0.00213623,-0.00305176,-0.00518799,0.012207
5.478,-0.0183105,-0.00671387,0,0.00305176
5.484,-0.00213623,0.000915527,-0.00213623,0.00427246
5.49,0.00762939,-0.00152588,-0.0204468,0.00518799
5.496,-0.0158691,-0.00427246,-0.000915527,0.0131226
5.502,-0.0109863,-0.00610352,0,0.00793457
5.508,-0.00335693,-0.00732422,-0.000305176,-0.00213623
5.514,0.00396729,0,-0.00244141,0.00518799
5.52,-0.015564,-0.00549316,-0.000610352,0.00488281
5.526,-0.00854492,-0.00366211,-0.00152588,-0.000610352
5.532,0.0012207,-0.00396729,0.00152588,0.00946045
5.538,-0.0128174,-0.00762939,-0.00579834,0.0119019
5.544,-0.00762939,-0.00396729,-0.000305176,0.0125122
5.55,-0.00457764,-0.00305176,-0.00732422,0.0128174
5.556,0.00701904,-0.00427246,-0.00549316,0.000915527
5.562,-0.00396729,-0.0012207,-0.00152588,0.00457764
5.568,-0.0106812,-0.00640869,-0.000305176,0.00671387
5.574,-0.0170898,0,0.00274658,0.0106812
5.58,0.0100708,-0.000305176,-0.00732422,0.00823975
5.586,-0.0109863,-0.00427246,-0.0128174,0.00762939
5.592,-0.0106812,-0.00396729,0.0088501,0.00335693
5.598,-0.00457764,0.000305176,-0.000915527,0.00305176
5.604,-0.00640869,-0.00305176,-0.00854492,0.00183105
5.61,-0.00488281,-0.00183105,-0.00213623,0.00732422
5.616,-0.00732422,-0.00701904,0.000305176,0.0149536
5.622,0.00183105,-0.00305176,0.010376,-0.00183105
5.628,-0.00610352,-0.00823975,-0.0158691,0.00274658
5.634,0.00854492,-0.00732422,-0.00488281,0.0195313
5.64,-0.00823975,-0.00274658,0.00640869,0.00915527
5.646,-0.0109863,-0.00762939,-0.0100708,0.00488281
5.652,-0.00335693,-0.00335693,-0.00244141,0.010376
5.658,-0.00793457,-0.00213623,0.00213623,0.00823975
5.664,-0.00671387,-0.00640869,-0.0161743,0.00671387
5.67,-0.00274658,-0.000915527,0.00335693,0.00915527
5.676,-0.0125122,-0.00244141,0.0143433,0.0109863
5.682,0,-0.00305176,-0.010376,-0.00335693
5.688,-0.00366211,-0.0012207,-0.00274658,0.00610352
5.694,-0.00671387,-0.00213623,-0.00274658,0.00549316
5.7,-0.0125122,0.00152588,0.00427246,0.0109863
5.706,-0.000610352,-0.00396729,0.00274658,0.00549316
5.712,-0.000610352,-0.00732422,-0.00915527,0.0112915
5.718,-0.0146484,-0.00518799,0.0012207,0.0189209
5.724,-0.0088501,-0.0012207,-0.00488281,0.00518799
5.73,0.00549316,-0.00518799,-0.00518799,-0.00396729
5.736,0.00549316,-0.00732422,-0.00518799,-0.00335693
5.742,-0.010376,-0.00457764,0.00335693,0.00305176
5.748,-0.0140381,-0.000610352,-0.00274658,0.0128174
5.754,-0.00762939,-0.00549316,-0.00183105,0.0204468
5.76,-0.0125122,-0.00488281,-0.00305176,0.0137329
5.766,0.0100708,-0.00457764,0.00427246,0.0140381
5.772,-0.00946045,-0.00213623,-0.00366211,-0.00671387
5.778,-0.000305176,-0.00366211,-0.00213623,-0.00701904
5.784,-0.00640869,-0.00244141,0.00427246,0.00946045
5.79,-0.0106812,-0.00366211,0.00823975,0.00793457
5.796,-0.00244141,-0.00701904,-0.00579834,0.00488281
5.802,-0.00335693,-0.00427246,-0.0228882,0.00793457
5.808,-0.00823975,-0.00549316,-0.00579834,-0.0100708
5.814,-0.00549316,-0.00152588,-0.000305176,0.00854492
5.82,0.00274658,-0.00244141,0.00488281,0.00823975
5.826,-0.00671387,-0.00244141,-0.0106812,0.0128174
5.832,-0.0119019,-0.00244141,-0.00579834,0.0131226
5.838,-0.00793457,-0.0088501,-0.00366211,0.0134277
5.844,-0.0161743,-0.00427246,-0.00244141,0.010376
5.85,0.00244141,0.00274658,-0.00396729,0.0119019
5.856,0.0115967,-0.00518799,0.00183105,-0.00518799
5.862,-0.00335693,-0.00427246,0.00518799,0.000305176
5.868,-0.0234985,-0.00610352,-0.0134277,0.00701904
5.874,0,-0.00396729,-0.00152588,0.0158691
5.88,0.00488281,-0.00213623,0.00518799,0.0186157
5.886,-0.00976563,-0.00610352,-0.00915527,0.0189209
5.892,-0.0134277,-0.00274658,0.00244141,-0.0164795
5.898,-0.00427246,-0.00427246,0.00305176,-0.0128174
5.904,0.0088501,-0.00427246,-0.00518799,-0.010376
5.91,-0.0149536,-0.00335693,-0.0125122,-0.00488281
5.916,-0.00305176,-0.00244141,-0.00671387,0.0189209
5.922,-0.0204468,-0.00671387,-0.00183105,0.0369263
5.928,-0.0109863,-0.00335693,0.00213623,0.0253296
5.934,-0.00518799,-0.00488281,-0.00274658,0.0125122
5.94,0.00640869,-0.00518799,0.00701904,0.00244141
5.946,0.00183105,0.000610352,-0.00823975,0.00457764
5.952,-0.00854492,-0.00549316,-0.0112915,0.00183105
5.958,-0.0112915,-0.00640869,-0.00488281,0.000610352
5.964,-0.0231934,-0.00518799,0.00762939,0.0012207
5.97,0.0189209,-0.00366211,-0.000610352,0.00976563
5.976,0.010376,-0.00335693,-0.00854492,0.00183105
5.982,-0.0213623,-0.000305176,-0.000305176,0.00518799
5.988,-0.010376,-0.000915527,-0.000305176,0.0204468
5.994,-0.00518799,-0.00701904,0.000915527,0.0106812
6,-0.00823975,0.000305176,-0.00762939,-0.00762939
6.006,-0.0125122,-0.00335693,-0.00488281,0.00823975
6.012,-0.00488281,-0.00274658,-0.000610352,0.00427246
6.018,-0.00213623,-0.00396729,0.00579834,0.00732422
6.024,-0.00701904,-0.00610352,-0.00488281,0.00976563
6.03,-0.00793457,-0.00335693,0.00152588,0.0115967
6.036,-0.00732422,-0.00152588,-0.0125122,0.00244141
6.042,-0.00976563,-0.00579834,-0.00427246,0.00366211
6.048,-0.00183105,-0.00305176,-0.00793457,0.00823975
6.054,0.00915527,-0.00396729,-0.0012207,0.0115967
6.06,-0.00732422,-0.000915527,0.00457764,-0.000610352
6.066,-0.0152588,-0.00488281,-0.00732422,0.0128174
6.072,-0.00457764,-0.0012207,0.00335693,0.00671387
6.078,-0.00549316,-0.00640869,-0.00823975,-0.00213623
6.084,-0.00793457,-0.0100708,0.00671387,0.00732422
6.09,-0.00610352,-0.00183105,-0.0149536,0.0128174
6.096,-0.00823975,-0.00213623,0.00427246,0.00610352
6.102,-0.00396729,-0.00152588,0.00305176,0.00427246
6.108,-0.0131226,-0.00579834,-0.00396729,0.00183105
6.114,-0.00549316,-0.00366211,-0.00274658,0.0128174
6.12,-0.00610352,-0.00427246,-0.00640869,0.00823975
6.126,-0.00244141,-0.00274658,0.000305176,0.00549316
6.132,-0.0115967,-0.00579834,-0.00366211,0.0109863
6.138,-0.00274658,-0.00427246,-0.00518799,0.00823975
6.144,-0.00579834,-0.000305176,-0.00457764,0.00823975
6.15,-0.00213623,-0.0012207,-0.00274658,0.00610352
6.156,0.000610352,-0.00213623,0.0131226,0.00793457
6.162,-0.00915527,-0.00213623,-0.00427246,0.015564
6.168,-0.0186157,-0.00823975,-0.00793457,-0.010376
6.174,0.017395,-0.00854492,-0.000915527,-0.0012207
6.18,-0.00213623,-0.000610352,-0.0088501,0.00579834
6.186,-0.017395,-0.00244141,-0.00244141,0.0137329
6.192,-0.0183105,-0.00152588,0.00732422,0.00610352
6.198,0.0164795,-0.00274658,0.00488281,0.00244141
6.204,-0.00823975,-0.00762939,-0.00610352,0.0134277
6.21,-0.0128174,-0.00396729,-0.00823975,0.0143433
6.216,-0.00610352,-0.00152588,0.000915527,0.0109863
6.222,-0.010376,-0.00305176,0.0012207,0.00946045
6.228,-0.00305176,-0.00854492,0.00183105,0.00762939
6.234,-0.00854492,-0.00396729,-0.000915527,-0.00396729
6.24,-0.00793457,-0.00457764,-0.00274658,0.0106812
6.246,0.0128174,0.0012207,0.00427246,0.0088501
6.252,-0.00732422,-0.0012207,-0.00915527,0.00335693
6.258,-0.0119019,-0.00274658,-0.00457764,0.00518799
6.264,-0.00396729,-0.00274658,-0.00793457,0.022583
6.27,-0.00305176,-0.00366211,0.00610352,0.000305176
6.276,-0.0125122,-0.00579834,0.00549316,-0.00396729
6.282,-0.012207,-0.000610352,-0.000305176,0.0128174
6.288,-0.00396729,-0.00427246,-0.0109863,0.00610352
6.294,-0.00152588,-0.00671387,-0.00915527,0.000610352
6.3,-0.00732422,-0.00366211,-0.000305176,0.00915527
6.306,-0.0112915,-0.00640869,0.00823975,0.010376
6.312,-0.00152588,-0.00762939,-0.00366211,0.0109863
6.318,-0.0143433,-0.00244141,-0.0128174,0.0125122
6.324,0.00152588,-0.00152588,-0.000610352,0.00610352
6.33,-0.00183105,-0.00244141,-0.000610352,0
6.336,-0.00305176,-0.00549316,0.000305176,0.00518799
6.342,-0.00976563,-0.00152588,0.000610352,0.00610352
6.348,-0.0140381,-0.00518799,0,0.00976563
6.354,-0.00183105,-0.00335693,-0.00396729,0.00396729
6.36,-0.00732422,-0.0012207,-0.00549316,0.00640869
6.366,0.00732422,-0.00671387,-0.00518799,0.00274658
6.372,-0.012207,-0.000915527,-0.00183105,0.00732422
6.378,-0.000915527,-0.000610352,0.000915527,0.0109863
6.384,0.000305176,0,0.00793457,0.00457764
6.39,-0.00671387,-0.00579834,-0.00823975,0.00823975
6.396,0.00488281,-0.00579834,-0.0216675,0.015564
6.402,-0.0146484,-0.00396729,0.0119019,0.0140381
6.408,-0.0112915,-0.0106812,-0.00701904,-0.000305176
6.414,-0.00579834,-0.00640869,-0.00488281,0.00152588
6.42,-0.00488281,-0.00274658,0.00640869,0.0140381
6.426,-0.0152588,-0.00305176,0.00610352,0.0152588
6.432,-0.0088501,-0.00274658,-0.00701904,-0.00396729
6.438,0.0112915,-0.00244141,-0.00244141,0
6.444,-0.0125122,-0.00274658,0.00305176,0.0106812
6.45,-0.0167847,-0.00366211,-0.00518799,-0.000915527
6.456,0.00457764,-0.00396729,-0.0115967,0.00274658
6.462,-0.00396729,-0.00305176,-0.00274658,0.0146484
6.468,-0.00335693,-0.00549316,-0.00152588,0.010376
6.474,-0.0128174,-0.000915527,-0.000305176,-0.00305176
6.48,-0.0088501,-0.00640869,-0.00518799,0.0106812
6.486,0.00579834,-0.00244141,-0.0088501,0.0106812
6.492,-0.00823975,0.000305176,0.00640869,0.0128174
6.498,-0.00701904,-0.00335693,-0.00457764,0.0115967
6.504,-0.010376,-0.00152588,0.00610352,0.00427246
6.51,-0.00366211,-0.00274658,0.000305176,0.00396729
6.516,-0.0012207,-0.00335693,0.00579834,0.0125122
6.522,-0.00488281,-0.00488281,-0.00946045,0.00793457
6.528,-0.00762939,-0.000305176,-0.00152588,0.00396729
6.534,-0.0115967,-0.000305176,0.00488281,0.0140381
6.54,-0.00701904,-0.00823975,-0.00457764,0.0305176
6.546,-0.00549316,-0.00732422,0.000305176,0.00915527
6.552,-0.00274658,-0.00518799,0.00213623,-0.0149536
6.558,-0.000610352,-0.00183105,-0.00701904,-0.000610352
6.564,0.000915527,-0.00213623,0.0012207,-0.0128174
6.57,-0.0164795,-0.00579834,-0.0106812,-0.0341797
6.576,-0.00732422,-0.00823975,-0.012207,0.00793457
6.582,0.00213623,-0.00274658,0.000610352,0.0411987
6.588,-0.00915527,-0.00213623,0.00671387,0.0418091
6.594,-0.0195313,-0.0012207,0.00335693,0.0213623
6.6,0.00610352,-0.00732422,-0.00701904,0
6.606,0.00213623,-0.00671387,-0.00488281,-0.00152588
6.612,-0.00335693,-0.000305176,0.00823975,0.00274658
6.618,-0.0115967,-0.00213623,-0.00671387,0.00274658
6.624,-0.0140381,-0.00152588,-0.00915527,0.00213623
6.63,-0.0180054,-0.00579834,-0.00671387,0.00762939
6.636,0.00244141,-0.00610352,-0.00457764,0.00671387
6.642,-0.00427246,-0.00183105,0.00610352,-0.00793457
6.648,-0.00335693,-0.00396729,0.00213623,0.0134277
6.654,0.00152588,0,0.00274658,0.0164795
6.66,-0.00427246,-0.00549316,-0.0128174,0.0143433
6.666,-0.0161743,-0.00183105,-0.00579834,0.00457764
6.672,-0.00854492,-0.00549316,-0.000915527,0.0100708
6.678,-0.00823975,-0.00457764,0.00366211,0.0119019
6.684,-0.000610352,-0.00549316,0.00274658,-0.00518799
6.69,-0.00213623,-0.00335693,-0.00396729,0.00366211
6.696,-0.00335693,0.000305176,0.00183105,0.0128174
6.702,-0.00396729,-0.00183105,0.00335693,0.00946045
6.708,-0.00274658,-0.0012207,-0.00305176,0.00762939
6.714,-0.010376,-0.00335693,-0.00457764,0.0128174
6.72,-0.0152588,-0.00488281,-0.00183105,0.00244141
6.726,-0.0088501,-0.00732422,-0.0146484,0.00549316
6.732,0,-0.00823975,0.00976563,0.00549316
6.738,0.00640869,-0.0012207,-0.00335693,0.00579834
6.744,-0.0125122,0.0012207,-0.0088501,0.0149536
6.75,-0.00823975,0.000610352,0.00732422,0.015564
6.756,-0.00244141,-0.00427246,-0.00183105,0.00396729
6.762,-0.00701904,-0.010376,-0.0128174,0
6.768,-0.0115967,-0.00549316,-0.00335693,0.0088501
6.774,-0.00823975,-0.00213623,0.00518799,0.0167847
6.78,-0.00610352,-0.00152588,0.00976563,0.00640869
6.786,-0.00640869,-0.00579834,0.00152588,0.00732422
6.792,-0.0146484,-0.00213623,-0.00305176,0.0119019
6.798,-0.0012207,-0.00335693,-0.00732422,0.0152588
6.804,0.00579834,-0.00335693,-0.0012207,-0.0012207
6.81,-0.00701904,-0.00274658,0.00732422,0.00244141
6.816,-0.0152588,-0.000305176,-0.00213623,0.00640869
6.822,-0.0137329,-0.00640869,-0.012207,-0.00152588
6.828,0.00213623,-0.0088501,-0.00396729,0.00579834
6.834,-0.0253296,-0.00244141,0.000915527,0.0131226
6.84,0.00579834,0.000305176,0.00762939,0.0170898
6.846,-0.0109863,-0.00305176,-0.0213623,0.0106812
6.852,-0.0106812,-0.00183105,0.00640869,0.00915527
6.858,0.00854492,-0.00396729,-0.00335693,0.0125122
6.864,-0.010376,-0.00488281,-0.000915527,0.0012207
6.87,-0.0119019,-0.00518799,0.00152588,-0.000305176
6.876,-0.0195313,-0.00244141,0.00213623,0.0152588
6.882,0.00854492,-0.00488281,-0.0088501,0.00640869
6.888,0.00732422,-0.0012207,-0.00427246,0.00732422
6.894,-0.00946045,-0.00732422,-0.00976563,0.00762939
6.9,-0.0152588,-0.00305176,-0.00427246,0.00854492
6.906,-0.012207,-0.00274658,0.0088501,0.0134277
6.912,-0.000305176,-0.00488281,-0.0119019,0.00457764
6.918,-0.00335693,-0.00213623,-0.00579834,0.00183105
6.924,-0.00579834,-0.0012207,-0.00213623,0.00640869
6.93,-0.010376,-0.00183105,0.00915527,0.010376
6.936,-0.00732422,0,0.00762939,0.00640869
6.942,-0.00335693,-0.0100708,-0.0140381,0.010376
6.948,-0.00396729,-0.00640869,-0.00671387,0.0088501
6.954,-0.00274658,-0.00671387,-0.00213623,0.000305176
6.96,-0.00244141,-0.000915527,0.00946045,0.0012207
6.966,-0.00854492,-0.00701904,-0.00640869,0.0115967
6.972,-0.0109863,-0.00396729,0.000305176,0.0125122
6.978,-0.00488281,-0.00671387,0.00396729,0.0128174
6.984,-0.00244141,-0.00305176,0.00823975,0.00671387
6.99,-0.00488281,-0.00152588,-0.0146484,0.0106812
6.996,-0.015564,-0.00579834,-0.00152588,-0.00274658
7.002,-0.00335693,-0.00366211,-0.00701904,0.00427246
7.008,-0.0137329,-0.00823975,-0.0125122,0.00366211
7.014,-0.00152588,-0.00213623,0.0115967,0.00549316
7.02,-0.00427246,-0.00152588,0.0201416,0.0143433
7.026,-0.010376,-0.00183105,-0.00213623,0.0195313
7.032,-0.0134277,-0.00457764,-0.0170898,0.0115967
7.038,-0.0106812,-0.00183105,0.00549316,-0.0012207
7.044,0,-0.00396729,0.0268555,0.00854492
7.05,-0.00610352,-0.00427246,-0.0317383,0.0088501
7.056,0.00610352,-0.000915527,-0.00549316,-0.00213623
7.062,-0.0149536,-0.00244141,0.0100708,0.00762939
7.068,-0.0189209,-0.00366211,0.00762939,0.0115967
7.074,-0.00335693,-0.00213623,-0.00640869,0.0146484
7.08,-0.00854492,-0.00579834,0.00457764,0.00823975
7.086,-0.00549316,-0.00427246,-0.00518799,0.00457764
7.092,0.00427246,-0.00305176,-0.00305176,0.00762939
7.098,-0.00701904,-0.00244141,-0.00427246,0.0109863
7.104,-0.0128174,-0.00274658,-0.0012207,0.00671387
7.11,-0.010376,-0.00549316,0,0.00610352
7.116,-0.0115967,-0.00579834,-0.00274658,-0.0012207
7.122,0.00213623,-0.00640869,-0.00366211,0.00732422
7.128,-0.00244141,-0.00396729,-0.00183105,0.00854492
7.134,-0.00946045,-0.00213623,-0.00854492,-0.00152588
7.14,-0.0112915,-0.00549316,0.00396729,0.00732422
7.146,-0.00152588,-0.00549316,-0.00335693,0.0198364
7.152,-0.00305176,-0.0012207,-0.00305176,0.00732422
7.158,0.00427246,-0.00274658,-0.00427246,-0.00793457
7.164,-0.00213623,-0.0012207,-0.000610352,0.0112915
7.17,-0.0125122,-0.00579834,0.00152588,0.017395
7.176,-0.0170898,-0.00579834,-0.00305176,0.0106812
7.182,-0.0152588,-0.0112915,-0.00488281,0.0100708
7.188,0.0216675,-0.000305176,-0.00152588,0.00701904
7.194,-0.010376,-0.00427246,0.00427246,0.00366211
7.2,0.00427246,-0.00152588,-0.00823975,0.00518799
7.206,-0.0219727,-0.00335693,-0.00579834,0.00732422
7.212,-0.0170898,-0.00183105,0.00213623,0.0161743
7.218,-0.00823975,-0.00701904,-0.00579834,0.0231934
7.224,-0.00213623,-0.00549316,0.0119019,0.0125122
7.23,-0.00701904,-0.00457764,-0.00274658,-0.0106812
7.236,-0.00396729,-0.00335693,-0.0244141,-0.0170898
7.242,-0.0106812,-0.00183105,-0.000610352,-0.00793457
7.248,-0.00701904,-0.00427246,0.00549316,-0.00213623
7.254,-0.0012207,-0.00427246,-0.00305176,0.0274658
7.26,-0.00915527,-0.00366211,0,0.0335693
7.266,-0.010376,-0.00396729,0.000610352,0.0186157
7.272,-0.00488281,-0.00305176,-0.00152588,0.0100708
7.278,0.0012207,-0.00244141,-0.00152588,0.00946045
7.284,-0.00183105,-0.00640869,-0.00274658,0.00183105
7.29,0.00396729,-0.00579834,-0.00976563,-0.00457764
7.296,-0.0189209,-0.00396729,-0.00427246,0.00579834
7.302,-0.0222778,-0.00396729,0.00854492,0.00488281
7.308,0.0112915,0.000305176,0.00701904,0.0112915
7.314,-0.00854492,-0.00183105,-0.00213623,0.0140381
7.32,-0.00854492,-0.000915527,0.000610352,0.0140381
7.326,-0.00335693,-0.0012207,0,0.00213623
7.332,-0.00793457,-0.00671387,0,0
7.338,-0.0125122,-0.00335693,-0.0112915,0.00762939
7.344,-0.00946045,-0.00488281,-0.0125122,0.0100708
7.35,0.0106812,-0.00396729,0.0125122,0.0134277
7.356,-0.0088501,-0.00762939,0,0.0109863
7.362,-0.0115967,-0.00701904,-0.0158691,0.00335693
7.368,-0.0216675,-0.00305176,-0.00579834,0.00305176
7.374,0.0140381,-0.00305176,0.00335693,0.0109863
7.38,0,-0.000915527,-0.00152588,0.00701904
7.386,-0.00274658,-0.00244141,0.00579834,0.00427246
7.392,-0.022583,-0.00793457,-0.00305176,0.00823975
7.398,-0.010376,-0.00366211,-0.00549316,-0.0012207
7.404,0.00793457,-0.00335693,0.00762939,0.00457764
7.41,-0.00915527,-0.00305176,-0.00488281,0.0183105
7.416,-0.0167847,-0.00244141,-0.0140381,0.00640869
7.422,-0.00640869,-0.0012207,0,0.00854492
7.428,-0.00183105,0.0012207,0.0128174,0.0088501
7.434,-0.00457764,-0.00366211,-0.0106812,0.00762939
7.44,-0.00701904,-0.00640869,-0.00549316,0.0177002
7.446,-0.00518799,-0.00457764,-0.00396729,0.00305176
7.452,-0.000610352,-0.00610352,0.00640869,-0.00335693
7.458,-0.000305176,-0.00335693,-0.00152588,0.010376
7.464,-0.00946045,0.00305176,0.00457764,0.00946045
7.47,-0.0143433,-0.00549316,0.00305176,0.0137329
7.476,-0.00915527,-0.00762939,-0.0112915,0.00854492
7.482,-0.00793457,-0.00488281,-0.00427246,-0.00823975
7.488,-0.0186157,-0.00274658,-0.00274658,0.0161743
7.494,0.0100708,-0.00213623,0.00183105,0.0012207
7.5,0.0143433,-0.00152588,0.00152588,-0.00640869
7.506,-0.0115967,-0.00793457,0.000610352,0.00518799
7.512,-0.0106812,-0.000305176,-0.0109863,0.00610352
7.518,-0.00915527,-0.00213623,-0.00762939,0.015564
7.524,-0.00946045,-0.0012207,-0.000610352,0.017395
7.53,-0.00366211,-0.00640869,0.000915527,0.00793457
7.536,-0.00396729,-0.00549316,0.0158691,0.0088501
7.542,-0.00396729,-0.00274658,-0.0119019,0.0149536
7.548,-0.00427246,-0.00213623,-0.00549316,0.0131226
7.554,-0.00244141,-0.00457764,0.0012207,-0.00213623
7.56,-0.0125122,-0.00305176,-0.00274658,-0.00274658
7.566,0.00335693,-0.000610352,0.00457764,0.00915527
7.572,-0.00335693,0,0.00152588,0.0143433
7.578,-0.00732422,-0.000610352,-0.00823975,0.00457764
7.584,-0.00579834,-0.00366211,-0.0112915,0.00213623
7.59,-0.0143433,-0.00640869,0.00823975,0.0119019
7.596,-0.0128174,-0.00366211,-0.0143433,0.00549316
7.602,0.00732422,-0.00518799,0.00823975,0.00762939
7.608,-0.0012207,-0.00823975,-0.0137329,0.0109863
7.614,-0.00213623,0.000305176,-0.00244141,0.010376
7.62,-0.015564,-0.000305176,0.000915527,0.0119019
7.626,-0.00946045,-0.00854492,-0.00244141,-0.0012207
7.632,-0.015564,-0.00518799,0.00915527,0.00366211
7.638,-0.00396729,-0.00549316,-0.00701904,0.0137329
7.644,-0.00732422,-0.00488281,-0.00671387,0.00762939
7.65,-0.00305176,-0.00244141,-0.00518799,0.0112915
7.656,-0.0106812,-0.00274658,0,0.00701904
7.662,-0.0109863,-0.00335693,0.0128174,0.00946045
7.668,-0.00549316,-0.00396729,-0.00701904,0.00518799
7.674,-0.00366211,-0.00488281,-0.0143433,0.00915527
7.68,0.0161743,-0.00305176,-0.000610352,0.012207
7.686,-0.0128174,-0.0012207,0.00305176,0.00427246
7.692,-0.0238037,0.0012207,0.00854492,0.0088501
7.698,0.00152588,-0.00366211,-0.000610352,0.0012207
7.704,0.00579834,-0.00488281,0.000610352,0.00549316
7.71,-0.0158691,-0.00610352,-0.0167847,-0.00366211
7.716,-0.0109863,-0.00152588,0.00488281,0.00640869
7.722,0.000305176,-0.00762939,-0.00823975,0.0128174
7.728,-0.012207,-0.00488281,0.00976563,0.015564
7.734,-0.00732422,-0.00305176,0.00457764,0.0198364
7.74,-0.0088501,-0.0012207,-0.00701904,0.00152588
7.746,-0.0088501,-0.00793457,-0.00457764,0.0115967
7.752,0.00732422,-0.000305176,0,0.00549316
7.758,-0.00976563,-0.00488281,-0.000305176,0.00518799
7.764,-0.0115967,-0.00457764,-0.00549316,0.00732422
7.77,0.000610352,0.000305176,0.0012207,0.00518799
7.776,-0.00427246,-0.00213623,-0.0195313,0.00457764
7.782,-0.0210571,-0.00732422,0.000915527,0.00701904
7.788,-0.00640869,-0.00213623,0.00610352,-0.00213623
7.794,0,-0.00915527,-0.0164795,-0.00671387
7.8,0.00488281,-0.00488281,-0.000610352,0.0109863
7.806,-0.0152588,-0.00152588,0.00640869,0.0143433
7.812,-0.0106812,-0.00335693,-0.00915527,0.00640869
7.818,0.00671387,-0.00366211,0.00396729,0.00946045
7.824,-0.0125122,-0.00549316,-0.000610352,0.00946045
7.83,-0.0152588,-0.00396729,0.00457764,0.0125122
7.836,0.00366211,-0.00488281,-0.00732422,0.0128174
7.842,-0.00549316,-0.00457764,0.0180054,0.00854492
7.848,-0.0231934,-0.00396729,-0.0125122,0.00762939
7.854,0.00854492,-0.00549316,-0.0195313,0.00610352
7.86,0.00579834,-0.00152588,0.0180054,0.000915527
7.866,-0.00640869,-0.00274658,-0.000610352,0.00732422
7.872,-0.0158691,-0.00518799,-0.0137329,0.0189209
7.878,-0.00274658,-0.000610352,0.00488281,0.0228882
7.884,-0.00854492,-0.0012207,0.00671387,-0.000915527
7.89,-0.0106812,-0.00152588,0.00427246,-0.00946045
7.896,-0.0161743,-0.00457764,0.00335693,-0.0152588
7.902,0.00488281,-0.00396729,-0.00671387,-0.0146484
7.908,0.0012207,-0.00701904,-0.0131226,0.00976563
7.914,-0.00305176,-0.00335693,0.00793457,0.0280762
7.92,-0.0125122,-0.00274658,0.00183105,0.0314331
7.926,-0.0161743,-0.00305176,-0.0210571,0.0170898
7.932,-0.00640869,-0.00305176,0.00396729,0.00427246
7.938,0.00854492,-0.00579834,0.0128174,0.0146484
7.944,-0.00640869,-0.00366211,-0.00732422,0.00305176
7.95,0.00579834,-0.0012207,-0.0131226,-0.0140381
7.956,-0.0152588,-0.00152588,0.00427246,0.00579834
7.962,-0.00640869,-0.00183105,0.00152588,0.0119019
7.968,-0.000915527,-0.00244141,-0.00579834,0.00640869
7.974,-0.0143433,-0.00610352,0.00396729,0.0012207
7.98,-0.00854492,-0.00640869,-0.00671387,0.0149536
7.986,-0.00427246,-0.00152588,-0.00244141,0.0115967
7.992,-0.00640869,-0.000305176,0.00732422,0.00915527
7.998,-0.0115967,-0.00213623,0.0100708,0.00762939
8.004,-0.0106812,-0.00671387,-0.0238037,0.0012207
8.01,-0.00854492,-0.00579834,-0.0119019,0.0106812
8.016,-0.0100708,-0.0012207,-0.00671387,0.00579834
8.022,-0.00457764,-0.00244141,0.0134277,0.0128174
8.028,0.00579834,-0.00396729,-0.000610352,0.012207
8.034,-0.0109863,-0.012207,-0.0415039,-0.00854492
8.04,-0.00701904,-0.00701904,-0.00213623,-0.00549316
8.046,-0.00305176,-0.0012207,0.00854492,0.0137329
8.052,0.0012207,0.00152588,0.0119019,0.0177002
8.058,-0.012207,-0.00152588,-0.00823975,0.00793457
8.064,-0.012207,-0.00701904,-0.00488281,0.0100708
8.07,0.00274658,0.000915527,-0.00488281,0.00305176
8.076,-0.00488281,-0.00427246,-0.00946045,-0.00823975
8.082,-0.0198364,-0.00244141,0.0143433,0.00732422
8.088,0.00274658,-0.00274658,-0.0183105,0.0137329
8.094,-0.00610352,-0.00732422,0.00213623,0.0161743
8.1,-0.00183105,-0.00610352,-0.0186157,0.0146484
8.106,0.000305176,-0.00427246,-0.00488281,0.00549316
8.112,-0.012207,0.0012207,0.0161743,0.00610352
8.118,-0.0106812,-0.00427246,0.00274658,0.00366211
8.124,-0.0143433,-0.000915527,0.0012207,0.00976563
8.13,-0.0115967,-0.000305176,0.00701904,0.0109863
8.136,0.00213623,-0.00579834,-0.0128174,0.0100708
8.142,-0.00366211,-0.00793457,-0.012207,0.00335693
8.148,-0.00305176,-0.00335693,-0.00244141,0.00518799
8.154,-0.0137329,-0.0012207,-0.0012207,0.0131226
8.16,-0.00396729,-0.00274658,-0.00518799,-0.0137329
8.166,-0.0112915,-0.00152588,0.00244141,0.00549316
8.172,-0.00427246,-0.00610352,-0.00671387,0.00854492
8.178,0.00244141,-0.00274658,-0.00946045,0.00976563
8.184,-0.0180054,0.000305176,0.0234985,0.0161743
8.19,-0.00823975,-0.00366211,-0.0125122,0.0125122
8.196,-0.0170898,-0.00701904,-0.00976563,0.00915527
8.202,0.00701904,-0.00457764,-0.00305176,0.0152588
8.208,0.00823975,-0.00427246,-0.0109863,0.00762939
8.214,0.00457764,-0.00366211,-0.00518799,0.00640869
8.22,-0.010376,-0.00152588,0.0109863,0.00488281
8.226,-0.0177002,0.000915527,0.00701904,0.00305176
8.232,-0.0112915,-0.00701904,-0.00488281,0.00518799
8.238,-0.00671387,0.00152588,-0.00244141,0.00213623
8.244,-0.00549316,-0.00457764,-0.0088501,0.015564
8.25,-0.00457764,-0.00305176,-0.00427246,0.012207
8.256,-0.00579834,-0.00457764,0.00244141,-0.0128174
8.262,-0.0100708,-0.00671387,0.00579834,-0.0012207
8.268,-0.00579834,-0.00610352,-0.000610352,0.017395
8.274,-0.012207,-0.00335693,-0.0201416,0.0177002
8.28,-0.00427246,-0.00213623,0,0.0192261
8.286,0.0201416,-0.00518799,0.00915527,0.00610352
8.292,-0.00579834,-0.00366211,0.0112915,0.00518799
8.298,-0.0201416,-0.00335693,0.000915527,0.00457764
8.304,-0.00976563,-0.00274658,-0.0125122,0.00762939
8.31,-0.0125122,-0.00244141,-0.00183105,0.00671387
8.316,-0.0201416,-0.00793457,-0.0115967,-0.00152588
8.322,0.0268555,-0.0012207,-0.010376,0.00244141
8.328,-0.00183105,-0.00549316,0.00762939,0.00793457
8.334,-0.0198364,0.000610352,0.00854492,0.0112915
8.34,-0.0161743,-0.0012207,0.00823975,0.0119019
8.346,-0.00823975,-0.00701904,-0.00549316,0.0137329
8.352,-0.00518799,-0.00366211,-0.00915527,0.00305176
8.358,-0.015564,-0.00610352,-0.000610352,0.0131226
8.364,0.00793457,-0.00518799,-0.0231934,0.00640869
8.37,0.00244141,-0.00396729,-0.00152588,-0.00366211
8.376,-0.00610352,-0.00244141,0.00610352,0.0167847
8.382,-0.0125122,0,0.0112915,0.00335693
8.388,-0.00915527,-0.00427246,0.00152588,-0.00915527
8.394,-0.00579834,-0.00427246,-0.020752,0.015564
8.4,-0.00946045,-0.00427246,-0.00915527,0.0201416
8.406,-0.00793457,-0.00732422,0.00457764,0.0128174
8.412,-0.0100708,-0.00396729,0.00640869,0.0119019
8.418,-0.00579834,-0.00396729,-0.0152588,0.00579834
8.424,-0.00640869,0.00213623,0.00274658,0.00274658
8.43,-0.0112915,-0.00518799,0.00305176,0.0012207
8.436,-0.00732422,-0.00579834,0.00427246,-0.00152588
8.442,0.0149536,-0.00335693,-0.000610352,0.00396729
8.448,0.0012207,-0.00854492,-0.00457764,0.0012207
8.454,-0.0180054,-0.00427246,0.0012207,0.00610352
8.46,-0.0167847,-0.00335693,0.00427246,0.00854492
8.466,-0.00610352,-0.00396729,-0.00946045,0.010376
8.472,0.00762939,0.00183105,-0.0109863,0.00701904
8.478,0.000915527,-0.00183105,-0.000915527,0.00823975
8.484,-0.00854492,-0.00671387,0.00854492,0.00732422
8.49,-0.0131226,-0.00854492,-0.0012207,0.00854492
8.496,-0.0143433,-0.00671387,-0.00457764,0.00823975
8.502,-0.0100708,-0.00366211,-0.00152588,0.00488281
8.508,0.0088501,-0.00396729,0.00305176,0.00793457
8.514,-0.00305176,-0.00457764,0.00946045,0.00732422
8.52,-0.022583,0.0012207,-0.015564,0.0106812
8.526,-0.00427246,0.00305176,-0.00427246,0.00457764
8.532,-0.00976563,-0.00732422,0.0192261,0.0192261
8.538,-0.00793457,-0.00579834,-0.00549316,0.0228882
8.544,-0.0149536,-0.00610352,-0.00488281,0.0088501
8.55,0.0106812,-0.00579834,-0.000610352,-0.00915527
8.556,0.00274658,0.0012207,-0.00274658,-0.0140381
8.562,-0.0289917,-0.0012207,-0.00213623,-0.0180054
8.568,0.0170898,-0.00823975,0.000305176,-0.00427246
8.574,0.00854492,-0.00244141,-0.00640869,0.0253296
8.58,-0.022583,0.000610352,-0.00823975,0.0372314
8.586,-0.012207,-0.00823975,-0.00274658,0.020752
8.592,-0.00274658,-0.00732422,0.000305176,0.00640869
8.598,0.00244141,0.00518799,0.0131226,0.00610352
8.604,-0.0393677,-0.00366211,-0.00579834,0.00152588
8.61,0.00244141,-0.00701904,-0.015564,0.00305176
8.616,-0.00915527,-0.00671387,-0.00152588,0.00915527
8.622,-0.00549316,-0.00274658,0.000915527,0.0119019
8.628,-0.0088501,-0.00518799,0.00335693,0.00579834
8.634,-0.00823975,-0.00213623,-0.000915527,0.00854492
8.64,-0.0137329,-0.00457764,-0.00366211,0.00488281
8.646,-0.00335693,-0.00732422,0.0012207,0.00579834
8.652,0.0323486,0.00335693,0.0012207,0.0112915
8.658,-0.00335693,0.000305176,-0.00427246,0.00793457
8.664,-0.0109863,-0.00457764,-0.00610352,0.00518799
8.67,-0.00610352,-0.00366211,-0.00274658,0.00610352
8.676,-0.020752,-0.00640869,0.000610352,0.00457764
8.682,-0.0152588,-0.00152588,-0.00976563,0.00457764
8.688,-0.00823975,-0.00213623,-0.00274658,0.00946045
8.694,-0.0125122,-0.00396729,0.00427246,0.0106812
8.7,-0.00488281,-0.00213623,-0.00396729,0.00579834
8.706,0.00274658,-0.00244141,-0.000915527,0.00793457
8.712,-0.00305176,-0.00274658,-0.00549316,0.00854492
8.718,-0.0100708,-0.00701904,-0.00366211,0.00457764
8.724,-0.00671387,-0.00823975,0.00213623,0.00701904
8.73,-0.00732422,-0.00335693,-0.000305176,0.00762939
8.736,-0.00823975,-0.00427246,-0.00732422,0.00915527
8.742,-0.00946045,-0.00427246,-0.0012207,0.00671387
8.748,0.000915527,0.00152588,0.000915527,0.00854492
8.754,-0.00518799,-0.00701904,-0.00579834,0.00579834
8.76,-0.00518799,-0.000610352,-0.00335693,0.00396729
8.766,-0.00640869,0.000610352,0.000305176,0.00854492
8.772,-0.00854492,-0.00366211,-0.00213623,0.00610352
8.778,-0.00823975,-0.00457764,0,0.00274658
8.784,-0.00335693,-0.00183105,-0.00213623,0.00823975
8.79,-0.00854492,-0.00366211,-0.00305176,0.00396729
8.796,-0.0180054,-0.00427246,-0.00610352,0.00640869
8.802,0.015564,-0.00701904,-0.00152588,0.00946045
8.808,0.00366211,-0.00427246,0.000610352,0.0115967
8.814,-0.00701904,-0.00213623,0,0.00183105
8.82,-0.0128174,-0.00305176,0.00183105,0.00213623
8.826,-0.0112915,0.000610352,-0.00396729,0.00457764
8.832,-0.00396729,-0.00366211,-0.00183105,0.00946045
8.838,-0.00396729,-0.00701904,-0.00213623,0.0088501
8.844,-0.00488281,-0.00488281,0.0012207,0.00396729
8.85,-0.0119019,-0.00518799,-0.00640869,0.0109863
8.856,-0.0100708,-0.0012207,-0.00396729,0.0106812
8.862,0.00488281,-0.00671387,-0.0112915,0.00549316
8.868,-0.00854492,-0.00457764,0.00610352,0.00701904
8.874,-0.0112915,-0.0012207,-0.00152588,0.00915527
8.88,-0.010376,-0.00152588,-0.0012207,0.00366211
8.886,-0.00579834,-0.00213623,0.0012207,0.00579834
8.892,-0.00549316,-0.00579834,0,0.00915527
8.898,-0.00396729,-0.00671387,-0.00701904,0.0088501
8.904,-0.00518799,-0.00488281,-0.00610352,0.00579834
8.91,-0.00671387,-0.00427246,-0.00244141,0.00793457
8.916,-0.00701904,-0.00610352,-0.00152588,0.00946045
8.922,-0.00671387,-0.00427246,-0.0100708,0.00732422
8.928,-0.00762939,-0.00762939,0.00183105,0.00946045
8.934,-0.00152588,-0.00305176,-0.00610352,0.00854492
8.94,-0.00427246,-0.00335693,0.00183105,0.00579834
8.946,-0.00671387,0.00244141,0.000305176,0.00457764
8.952,-0.0088501,0.0012207,0.000610352,0.0112915
8.958,-0.00610352,-0.00274658,0.00366211,0.00518799
8.964,-0.00579834,-0.00793457,-0.00244141,0.010376
8.97,-0.00823975,-0.00457764,-0.00427246,0.00366211
8.976,-0.012207,-0.00427246,-0.00579834,0.00457764
8.982,-0.0109863,-0.00335693,-0.00701904,0.00640869
8.988,-0.00518799,-0.00396729,-0.00152588,0.00457764
8.994,-0.00701904,0,-0.000610352,0.00488281
9,-0.00396729,-0.00671387,0.00274658,0.0106812
9.006,-0.00183105,-0.00640869,0.00518799,0.00915527
9.012,-0.00213623,-0.00579834,-0.00213623,0.00488281
9.018,-0.00671387,-0.00213623,-0.00244141,0.00854492
9.024,-0.0088501,-0.00335693,-0.00213623,0.00549316
9.03,-0.00488281,-0.00244141,-0.00183105,0.00946045
9.036,-0.00823975,-0.000610352,-0.00518799,0.0128174
9.042,-0.00579834,-0.00518799,-0.00549316,0.00457764
9.048,-0.0100708,-0.00427246,0,0.00640869
9.054,-0.010376,-0.00396729,0.000610352,0.0012207
9.06,0.00915527,-0.00305176,-0.00518799,0.0109863
9.066,-0.00457764,-0.0012207,-0.00457764,0.0109863
9.072,-0.00396729,0.000915527,0.00244141,0.00854492
9.078,-0.00854492,-0.00518799,0.00366211,0.00640869
9.084,-0.00854492,-0.00610352,-0.00457764,0.00244141
9.09,-0.010376,-0.00457764,-0.00244141,0.0012207
9.096,-0.00732422,-0.00671387,-0.00335693,0.0106812
9.102,-0.00732422,-0.00366211,0.00244141,0.00366211
9.108,-0.00579834,-0.00274658,-0.00305176,0.00335693
9.114,-0.00854492,-0.00396729,-0.00488281,0.00549316
9.12,-0.00335693,-0.00579834,-0.00549316,0.00671387
9.126,-0.00610352,-0.00183105,-0.00152588,0.0106812
9.132,-0.010376,-0.000915527,0.00335693,0.0112915
9.138,-0.00671387,-0.00457764,0.00213623,0.0109863
9.144,-0.00396729,-0.00183105,0.00213623,0.00579834
9.15,-0.000305176,0.000610352,-0.000915527,0.00732422
9.156,-0.00274658,-0.00183105,0.000610352,0.00427246
9.162,-0.00488281,-0.00396729,-0.0012207,0.00457764
9.168,-0.00488281,-0.00671387,-0.00335693,0.00823975
9.174,-0.00762939,-0.00549316,-0.00579834,0.010376
9.18,-0.0119019,-0.00183105,-0.00396729,0.00915527
9.186,-0.00762939,-0.00640869,0.000305176,0.0152588
9.192,-0.00366211,-0.00274658,-0.00305176,0.0192261
9.198,-0.00854492,-0.00762939,0.00732422,0.010376
9.204,-0.00427246,-0.00244141,-0.0143433,-0.00976563
9.21,-0.00854492,-0.00701904,0.000610352,-0.0140381
9.216,-0.00762939,-0.000610352,0.00366211,-0.0192261
9.222,-0.00183105,-0.00305176,-0.00518799,-0.000915527
9.228,-0.00823975,-0.00335693,-0.00305176,0.0234985
9.234,-0.00854492,-0.00488281,0.000305176,0.0317383
9.24,-0.00793457,-0.00396729,0.000610352,0.0204468
9.246,-0.000915527,-0.00305176,0.000305176,0.0146484
9.252,-0.00640869,-0.00183105,-0.00244141,0.00518799
9.258,-0.00518799,-0.0012207,-0.00732422,0.00366211
9.264,-0.00335693,-0.00427246,-0.00640869,0.00427246
9.27,-0.00671387,-0.0012207,-0.00183105,0.00640869
9.276,-0.00946045,-0.00549316,-0.00335693,0.00274658
9.282,-0.00976563,-0.00518799,-0.000305176,0.00518799
9.288,-0.00701904,-0.00549316,0.00305176,0.0088501
9.294,-0.00305176,-0.00701904,0.000305176,0.00366211
9.3,-0.00488281,-0.00244141,-0.00274658,0.00640869
9.306,-0.00396729,-0.00488281,-0.00671387,0.00915527
9.312,-0.0100708,-0.00335693,-0.00579834,0.00488281
9.318,-0.00793457,0.000305176,-0.000305176,0.00549316
9.324,-0.0088501,-0.00183105,-0.00183105,0.00274658
9.33,-0.00335693,-0.000610352,-0.00549316,0.00976563
9.336,-0.00335693,-0.00549316,-0.00396729,0.0088501
9.342,-0.0106812,-0.00366211,0.00671387,0.0128174
9.348,-0.0106812,-0.00366211,-0.000610352,0.00793457
9.354,-0.00274658,-0.00518799,-0.00183105,0.0088501
9.36,-0.00793457,-0.00335693,-0.0088501,0.00701904
9.366,-0.00549316,-0.00274658,-0.00213623,0.00549316
9.372,-0.00579834,-0.00366211,0.00274658,0.00732422
9.378,-0.00518799,-0.00579834,-0.00274658,0.00671387
9.384,-0.00610352,-0.00305176,-0.0100708,0.00579834
9.39,-0.00793457,-0.00457764,0.000305176,0.00640869
9.396,-0.00946045,-0.00518799,0.00610352,0.00518799
9.402,-0.00823975,-0.00793457,-0.00579834,0.00274658
9.408,-0.0100708,-0.000610352,-0.00305176,0.00640869
9.414,-0.00762939,-0.00274658,-0.00366211,0.00518799
9.42,-0.0012207,-0.00274658,-0.00335693,0.00915527
9.426,-0.00183105,-0.00488281,-0.00213623,0.00732422
9.432,-0.00183105,-0.00427246,-0.000610352,0.00793457
9.438,-0.00701904,-0.00305176,-0.00457764,0.0100708
9.444,-0.00671387,-0.00213623,-0.00457764,0.00549316
9.45,-0.00823975,-0.00305176,-0.000305176,0.00640869
9.456,-0.00671387,-0.00305176,0.000610352,0.0088501
9.462,-0.00732422,-0.00427246,0.00244141,0.00244141
9.468,-0.00762939,-0.00640869,-0.00549316,0.00457764
9.474,-0.00793457,-0.00427246,-0.00671387,0.00671387
9.48,-0.00823975,-0.00274658,-0.00274658,0.00793457
9.486,-0.00610352,-0.00335693,-0.000610352,0.00549316
9.492,-0.00305176,0.000305176,-0.00610352,0.00762939
9.498,-0.00183105,-0.00244141,-0.00610352,0.00244141
9.504,-0.0100708,-0.00274658,-0.00335693,0.00915527
9.51,-0.0106812,-0.00335693,-0.00152588,0.00793457
9.516,-0.00823975,-0.00640869,-0.00335693,0.00976563
9.522,-0.00488281,-0.00305176,-0.00488281,0.00946045
9.528,-0.00976563,-0.00213623,-0.00640869,0.00427246
9.534,-0.00335693,-0.00579834,0.00183105,0.0088501
9.54,-0.00701904,-0.00457764,-0.00183105,0.00823975
9.546,-0.00579834,-0.00549316,-0.00518799,0.00793457
9.552,-0.00671387,-0.00457764,-0.00518799,0.00579834
9.558,-0.00183105,-0.00213623,0.00457764,0.00793457
9.564,-0.00610352,-0.00396729,-0.00366211,0.00518799
9.57,-0.00427246,-0.00427246,-0.000915527,0.00671387
9.576,-0.000915527,-0.00518799,-0.00762939,0.00793457
9.582,-0.00305176,-0.00457764,-0.00396729,0.00366211
9.588,-0.00396729,-0.00366211,-0.00579834,0.00976563
9.594,-0.00854492,-0.00244141,-0.00244141,0.00671387
9.6,-0.00518799,-0.00335693,0.00152588,0.00701904
9.606,-0.010376,-0.0012207,-0.000915527,0.00854492
9.612,-0.00915527,-0.00579834,-0.000305176,0.0109863
9.618,-0.0100708,-0.00305176,-0.00549316,0.000915527
9.624,-0.0112915,-0.00244141,-0.00549316,0.00671387
9.63,-0.00762939,0,-0.00274658,0.00549316
9.636,0,-0.00427246,-0.0012207,0.00762939
9.642,0,-0.00427246,0.000305176,0.00793457
9.648,-0.000610352,-0.00274658,0.00518799,0.00457764
9.654,-0.0088501,-0.0012207,-0.00732422,0.0106812
9.66,-0.0149536,-0.00396729,-0.00823975,0.0115967
9.666,-0.00671387,-0.00457764,0.000305176,0.0119019
9.672,-0.000915527,-0.00335693,-0.00579834,0.00701904
9.678,-0.00946045,-0.00396729,-0.00366211,0.00762939
9.684,-0.00732422,-0.00610352,-0.0012207,0.00823975
9.69,-0.00854492,-0.00244141,-0.00396729,0.00671387
9.696,-0.00518799,-0.00701904,0.000915527,0.00427246
9.702,-0.00213623,-0.00488281,0.0012207,0.012207
9.708,-0.00732422,-0.00610352,-0.00671387,0.00610352
9.714,-0.0137329,-0.00701904,-0.00213623,0.00762939
9.72,-0.00915527,-0.000915527,0.0012207,0.0088501
9.726,-0.00305176,-0.000915527,-0.00457764,0.00915527
9.732,-0.00640869,0.000610352,-0.000305176,0.00946045
9.738,-0.00549316,-0.0012207,-0.000610352,0.0109863
9.744,-0.00762939,-0.00274658,-0.00488281,0.00244141
9.75,-0.00549316,-0.00366211,-0.00396729,0.00305176
9.756,-0.00671387,-0.00579834,-0.000305176,0.00274658
9.762,-0.00793457,-0.00366211,-0.00610352,0.00396729
9.768,-0.00640869,-0.00274658,-0.00213623,0.00610352
9.774,-0.00762939,-0.00579834,-0.00305176,0.00732422
9.78,-0.00976563,-0.00518799,-0.00213623,0.00640869
9.786,-0.00579834,-0.00335693,-0.00488281,0.00915527
9.792,-0.00549316,-0.00183105,0.000915527,0.00976563
9.798,-0.00610352,-0.00305176,-0.00366211,0.010376
9.804,-0.00427246,0.000610352,0.000305176,0.0106812
9.81,-0.00427246,-0.00518799,0,0.00823975
9.816,-0.00488281,-0.00671387,0,0.0119019
9.822,-0.00915527,-0.00518799,-0.00305176,0.00610352
9.828,-0.00396729,-0.00335693,-0.00457764,0.00671387
9.834,-0.00640869,-0.00549316,-0.00183105,0.00579834
9.84,-0.00793457,-0.00305176,-0.000610352,0.00366211
9.846,-0.00946045,0.00152588,0,0.00610352
9.852,-0.00274658,-0.00244141,-0.00244141,0.0134277
9.858,-0.00396729,-0.00183105,-0.00152588,0.0241089
9.864,-0.00854492,-0.00457764,-0.00366211,0.0198364
9.87,-0.0088501,-0.00366211,-0.00823975,-0.0012207
9.876,-0.00946045,-0.00274658,-0.00305176,-0.0140381
9.882,-0.00946045,-0.00427246,-0.00274658,-0.0204468
9.888,-0.00823975,-0.00244141,-0.00305176,-0.0112915
9.894,-0.00366211,-0.00274658,-0.00152588,0.00946045
9.9,-0.00274658,-0.00579834,-0.00762939,0.0289917
9.906,-0.0012207,-0.00549316,0.000915527,0.0326538
9.912,-0.00366211,-0.00640869,-0.000305176,0.0180054
9.918,-0.00762939,-0.00457764,-0.0012207,0.00762939
9.924,-0.00671387,-0.00518799,-0.00396729,0.00335693
9.93,-0.0100708,-0.000915527,-0.00213623,0.00335693
9.936,-0.00701904,-0.00244141,-0.00274658,0.00610352
9.942,-0.00518799,-0.00701904,-0.00335693,0.00366211
9.948,-0.00457764,-0.00457764,-0.000915527,0.0088501
9.954,-0.00946045,-0.00305176,-0.0012207,0.00518799
9.96,-0.00732422,-0.00488281,0.0012207,0.00671387
9.966,-0.00579834,-0.00946045,-0.00274658,0.00640869
9.972,-0.00549316,-0.00305176,-0.0012207,0.00976563
9.978,-0.00610352,-0.00335693,-0.00396729,0.00488281
9.984,-0.00762939,-0.00274658,-0.00610352,0.00701904
9.99,-0.00976563,-0.00610352,-0.00305176,0.00579834
9.996,-0.00732422,-0.00305176,-0.00183105,0.00823975
10.002,-0.00213623,-0.00335693,-0.000915527,0.00671387
10.008,-0.00579834,-0.00427246,-0.00427246,0.00396729
10.014,-0.00213623,-0.00335693,-0.00732422,0.0088501
10.02,-0.00793457,-0.00549316,-0.00183105,0.00640869
10.026,-0.00823975,-0.0012207,-0.00366211,0.00732422
10.032,-0.00518799,-0.00335693,-0.00305176,0.00701904
10.038,-0.00946045,-0.00152588,-0.000915527,0.00579834
10.044,-0.0100708,-0.00427246,-0.00213623,0.00640869
10.05,-0.00701904,-0.00488281,0.0012207,0.0106812
10.056,-0.00335693,-0.00671387,-0.00152588,0.00823975
10.062,-0.00793457,-0.00427246,-0.00854492,0.00488281
10.068,-0.00213623,-0.00396729,-0.00640869,0.00579834
10.074,-0.00183105,-0.00335693,-0.00183105,0.0088501
10.08,-0.00946045,-0.00488281,-0.000915527,0.00762939
10.086,-0.0106812,-0.0012207,-0.00518799,0.00793457
10.092,-0.00915527,-0.00427246,-0.00427246,0.00701904
10.098,-0.00579834,-0.00610352,-0.00274658,0.0106812
10.104,-0.00732422,-0.00793457,-0.000305176,0.00762939
10.11,-0.00579834,-0.00274658,0.00335693,0.00732422
10.116,-0.00244141,-0.00488281,-0.00427246,0.00793457
10.122,-0.00549316,-0.00244141,-0.00213623,0.00610352
10.128,-0.00671387,-0.00549316,-0.000305176,0.00549316
10.134,-0.00701904,-0.000915527,-0.00213623,0.00396729
10.14,-0.00946045,0.000915527,-0.000610352,0.00518799
10.146,-0.00671387,-0.0012207,-0.00274658,0.00732422
10.152,-0.00610352,-0.00579834,-0.000610352,0.00640869
10.158,-0.00793457,-0.00854492,0,0.00762939
10.164,-0.00274658,-0.00427246,0.00244141,0.0115967
10.17,-0.00854492,-0.00366211,-0.00457764,0.00701904
10.176,-0.00640869,-0.000915527,-0.00305176,0.00854492
10.182,-0.00457764,-0.00579834,-0.00183105,0.00823975
10.188,-0.00457764,-0.00244141,-0.000305176,0.00823975
10.194,-0.00701904,-0.00396729,-0.0012207,0.0088501
10.2,-0.00427246,-0.00457764,-0.00457764,0.00427246
10.206,-0.00854492,-0.00244141,-0.00305176,0.00610352
10.212,-0.00762939,0.000610352,0.000610352,0.00732422
10.218,-0.00213623,-0.00213623,0,0.00549316
10.224,-0.00274658,-0.00366211,-0.00366211,0.00549316
10.23,-0.00946045,-0.00640869,-0.00244141,0.0088501
10.236,-0.00701904,-0.00671387,0,0.00671387
10.242,-0.0088501,-0.00518799,-0.00305176,0.0100708
10.248,-0.00305176,-0.00274658,-0.00183105,0.0100708
10.254,-0.00610352,-0.00518799,-0.00335693,0.00946045
10.26,-0.00549316,-0.00366211,-0.00457764,0.00946045
10.266,-0.0088501,-0.00305176,-0.00488281,0.00793457
10.272,-0.00640869,-0.00579834,-0.000915527,0.00915527
10.278,-0.00610352,-0.00244141,-0.00335693,0.000305176
10.284,-0.0119019,-0.00549316,-0.00640869,0.00610352
10.29,-0.00579834,-0.00396729,-0.00152588,0.00335693
10.296,-0.00183105,-0.00366211,-0.000915527,0.00488281
10.302,-0.00610352,-0.000610352,-0.00244141,0.0125122
10.308,-0.00701904,-0.00305176,-0.00244141,0.00671387
10.314,-0.0088501,-0.00518799,-0.000915527,0.00976563
10.32,-0.00396729,-0.00335693,-0.00183105,0.00732422
10.326,-0.00488281,-0.00579834,-0.000610352,0.00427246
10.332,-0.00732422,-0.00366211,-0.000915527,0.00549316
10.338,-0.00854492,-0.00396729,-0.00427246,0.00549316
10.344,-0.00335693,-0.00183105,-0.00213623,0.0088501
10.35,-0.00610352,-0.00335693,-0.00244141,0.00762939
10.356,-0.00274658,-0.00213623,-0.00213623,0.00396729
10.362,-0.00976563,-0.00213623,-0.000305176,0.00701904
10.368,-0.00732422,-0.00366211,-0.00488281,0.00793457
10.374,-0.00579834,-0.00335693,-0.000915527,0.00854492
10.38,-0.00793457,-0.00396729,-0.00244141,0.0109863
10.386,-0.00457764,-0.00183105,-0.00335693,0.00762939
10.392,0.000305176,-0.00732422,-0.00366211,0.00671387
10.398,-0.00610352,-0.00640869,-0.00427246,0.00457764
10.404,-0.00976563,-0.00549316,-0.00335693,0.00427246
10.41,-0.00793457,-0.00274658,-0.00427246,0.00427246
10.416,-0.00854492,-0.00335693,-0.00213623,0.00610352
10.422,-0.00793457,-0.00183105,-0.00427246,0.00396729
10.428,-0.00579834,-0.00335693,-0.00183105,0.00579834
10.434,-0.00610352,-0.00427246,0.00152588,0.00732422
10.44,-0.00396729,-0.00274658,-0.00183105,0.00793457
10.446,-0.00244141,-0.000305176,-0.00335693,0.0112915
10.452,-0.00335693,-0.0012207,0.00183105,0.00762939
10.458,-0.00701904,-0.00244141,0.00213623,0.00701904
10.464,-0.00457764,-0.00457764,-0.00793457,0.0100708
10.47,-0.00671387,-0.00579834,0.0012207,0.00671387
10.476,-0.00732422,-0.00488281,-0.00457764,0.010376
10.482,-0.0088501,-0.00671387,0.00274658,0.0128174
10.488,-0.00427246,-0.00366211,0.000610352,0.00671387
10.494,-0.00549316,-0.0012207,-0.00335693,0.00976563
10.5,-0.00518799,-0.00579834,-0.00366211,0.00427246
10.506,-0.00457764,-0.00518799,-0.0012207,0.00854492
10.512,-0.00457764,-0.00579834,0,0.022583
10.518,-0.00762939,-0.00366211,-0.0012207,0.0167847
10.524,-0.00610352,-0.00244141,-0.00152588,-0.00152588
10.53,-0.00946045,-0.00366211,0.000610352,-0.00793457
10.536,-0.0112915,-0.00183105,0.00213623,-0.0134277
10.542,-0.00610352,-0.00335693,-0.00366211,-0.0106812
10.548,-0.00152588,-0.00183105,-0.00244141,0.00610352
10.554,-0.00488281,-0.00244141,-0.00213623,0.0216675
10.56,-0.010376,-0.00366211,-0.00335693,0.0253296
10.566,-0.00396729,-0.00183105,-0.00274658,0.0213623
10.572,-0.00518799,-0.00427246,0.000610352,0.0125122
10.578,-0.00518799,-0.00396729,-0.00762939,0.00549316
10.584,-0.00427246,-0.00640869,-0.000610352,0.00732422
10.59,-0.00915527,-0.00335693,0.000915527,0.00488281
10.596,-0.00823975,-0.00457764,-0.00335693,0.00518799
10.602,-0.00854492,-0.00579834,-0.00488281,0.00762939
10.608,-0.0088501,-0.00762939,0.000305176,0.00762939
10.614,-0.00335693,-0.00335693,0.000610352,-0.00213623
10.62,-0.00335693,-0.00152588,0.00610352,0.00671387
10.626,-0.0106812,-0.00213623,-0.00335693,0.010376
10.632,-0.00610352,0.000305176,0.00396729,0.0088501
10.638,-0.0088501,-0.00274658,-0.00366211,0.00610352
10.644,-0.00335693,-0.00701904,-0.00915527,0.00762939
10.65,-0.00213623,-0.00366211,-0.00213623,0.00823975
10.656,-0.0088501,-0.00152588,-0.00610352,0.00640869
10.662,-0.0161743,-0.00579834,0.000610352,0.00793457
10.668,-0.00946045,-0.00183105,-0.010376,0.00640869
10.674,-0.00610352,-0.0012207,-0.00152588,0.0088501
10.68,-0.00427246,-0.00396729,0.00396729,0.00976563
10.686,-0.00305176,-0.00244141,0.00457764,0.0109863
10.692,-0.00183105,-0.00213623,-0.00183105,0.00762939
10.698,-0.00366211,-0.00640869,-0.0012207,0.00213623
10.704,-0.00244141,-0.00701904,0.000915527,0.00732422
10.71,-0.000915527,-0.00457764,-0.00701904,0.00823975
10.716,-0.00915527,-0.00244141,-0.00518799,0.00335693
10.722,-0.010376,-0.00518799,-0.00244141,0.00946045
10.728,-0.00396729,-0.00274658,0.0012207,0.00640869
10.734,-0.00457764,-0.000305176,-0.0012207,0.00823975
10.74,-0.00854492,-0.0012207,0.000305176,0.00701904
10.746,-0.00976563,-0.00457764,-0.000610352,0.00488281
10.752,-0.00518799,-0.00579834,-0.000915527,0.00610352
10.758,-0.00701904,-0.00915527,-0.00701904,0.00823975
10.764,-0.00549316,-0.00610352,-0.00305176,0.00671387
10.77,-0.00610352,-0.00457764,-0.00335693,0.00549316
10.776,-0.00854492,-0.00183105,-0.0134277,0.00671387
10.782,0.000915527,-0.000610352,0.000610352,0.00976563
10.788,-0.00518799,-0.00183105,-0.00457764,0.00762939
10.794,-0.0106812,-0.00549316,0.0012207,0.00762939
10.8,-0.00701904,-0.00274658,0.00244141,0.00823975
10.806,-0.00701904,-0.00793457,0.00396729,0.00671387
10.812,-0.00640869,-0.00518799,-0.0012207,0.00457764
10.818,-0.00732422,-0.00152588,-0.00366211,0.00701904
10.824,-0.00671387,-0.00335693,-0.00335693,0.00518799
10.83,-0.0088501,-0.00335693,-0.00579834,0.0100708
10.836,-0.0088501,-0.00335693,-0.0012207,0.00976563
10.842,-0.00518799,-0.000915527,-0.00335693,0.0119019
10.848,-0.00762939,-0.00366211,-0.00579834,0.00457764
10.854,-0.00305176,0,-0.000915527,0.00793457
10.86,0.000305176,-0.00427246,-0.00183105,0.00396729
10.866,-0.00335693,-0.00213623,-0.000610352,0.00427246
10.872,-0.00640869,-0.00152588,-0.00305176,0.00946045
10.878,-0.00976563,-0.0119019,-0.0012207,0.0131226
10.884,-0.00823975,-0.00366211,0.000610352,0.00823975
10.89,-0.00457764,-0.00366211,-0.000915527,0.00946045
10.896,-0.0112915,-0.00305176,-0.00305176,0.00854492
10.902,-0.00396729,-0.00274658,-0.00488281,0.00518799
10.908,-0.00671387,-0.00152588,-0.00244141,0.00701904
10.914,-0.00427246,-0.00152588,-0.00335693,0.00793457
10.92,-0.00671387,-0.00457764,-0.000305176,0.00823975
10.926,-0.00823975,-0.000305176,-0.00518799,0.00671387
10.932,-0.00488281,-0.00213623,-0.00457764,0.00793457
10.938,-0.00305176,-0.00274658,0.00183105,0.012207
10.944,-0.00793457,-0.00366211,0.000305176,0.0088501
10.95,-0.00915527,-0.00152588,-0.00701904,0.00427246
10.956,-0.00396729,-0.00305176,-0.00549316,0.00488281
10.962,-0.00701904,-0.00488281,-0.0012207,0.00640869
10.968,-0.010376,-0.00213623,-0.00610352,0.00732422
10.974,-0.00732422,-0.00274658,-0.000610352,0.0134277
10.98,-0.00671387,-0.00427246,0.000305176,0.00854492
10.986,-0.00396729,-0.00640869,-0.00335693,0.010376
10.992,-0.00640869,-0.00579834,-0.00549316,0.00549316
10.998,-0.00640869,-0.00488281,-0.000305176,0.00274658
11.004,-0.00915527,-0.000610352,-0.00549316,0.00610352
11.01,-0.00976563,-0.00305176,-0.00244141,0.00488281
11.016,-0.00549316,-0.00488281,-0.00793457,0.00152588
11.022,-0.00701904,-0.00274658,-0.00244141,0.00671387
11.028,-0.00549316,-0.00579834,0.000610352,0.00762939
11.034,-0.00335693,-0.0012207,-0.000610352,0.00457764
11.04,-0.00152588,-0.00244141,-0.00183105,0.00915527
11.046,-0.00518799,-0.000915527,-0.00183105,0.00823975
11.052,-0.00183105,-0.00213623,-0.00396729,0.010376
11.058,-0.00427246,-0.000915527,-0.00518799,0.00732422
11.064,-0.00823975,-0.00396729,0.00640869,0.0115967
11.07,-0.00823975,-0.00213623,-0.00488281,0.00915527
11.076,-0.0146484,-0.00701904,-0.00274658,0.00549316
11.082,-0.00610352,-0.00335693,-0.00335693,0.00610352
11.088,-0.00488281,-0.00427246,-0.00579834,0.0119019
11.094,-0.00366211,-0.000610352,-0.00152588,0.00732422
11.1,-0.00854492,-0.00457764,0.00335693,0.00701904
11.106,-0.00823975,-0.00427246,0,0.00335693
11.112,-0.0088501,-0.00396729,-0.00305176,0.0143433
11.118,-0.00671387,-0.000915527,-0.000915527,0.0201416
11.124,-0.00579834,-0.00274658,-0.00549316,0.0167847
11.13,-0.00732422,-0.00427246,-0.0012207,-0.00579834
11.136,-0.00762939,-0.0012207,-0.00396729,-0.0112915
11.142,-0.00213623,-0.00366211,-0.00457764,-0.0149536
11.148,-0.00518799,-0.00549316,-0.00579834,-0.00915527
11.154,-0.00610352,-0.00488281,-0.00305176,0.0128174
11.16,-0.00732422,-0.00671387,0.00610352,0.0326538
11.166,-0.00579834,-0.00488281,0.000610352,0.0256348
11.172,-0.00640869,0.000915527,-0.00640869,0.0137329
11.178,-0.00946045,-0.00396729,0.00152588,0.00701904
11.184,-0.0106812,-0.00244141,-0.00396729,0.00152588
11.19,-0.00823975,-0.0012207,-0.00152588,0.00183105
11.196,-0.00457764,-0.000915527,-0.000305176,0.00701904
11.202,-0.00366211,-0.00488281,-0.00183105,0.00762939
11.208,-0.00671387,-0.00183105,-0.000610352,0.00762939
11.214,-0.00549316,-0.00823975,-0.00152588,0.00610352
11.22,-0.00396729,0.000305176,-0.00457764,0.00701904
11.226,-0.00579834,-0.00640869,-0.00427246,0.00793457
11.232,-0.00396729,-0.00549316,-0.00152588,0.00579834
11.238,-0.00701904,-0.000610352,-0.00274658,0.00183105
11.244,-0.0088501,-0.00274658,-0.00183105,0.00549316
11.25,-0.00793457,-0.00274658,0.00244141,0.0128174
11.256,-0.00671387,-0.00610352,-0.00396729,0.0112915
11.262,-0.00396729,-0.0012207,-0.00549316,0.00762939
11.268,-0.000610352,-0.000305176,0.00183105,0.0088501
11.274,-0.00549316,-0.00366211,-0.00305176,0.00518799
11.28,-0.00305176,-0.00335693,-0.0012207,0.00854492
11.286,-0.0109863,-0.00366211,0.00274658,0.00610352
11.292,-0.00701904,-0.00396729,0.000305176,0.00579834
11.298,-0.00640869,-0.00274658,-0.00183105,0.00946045
11.304,-0.00732422,0.000610352,-0.000610352,0.0100708
11.31,-0.00793457,-0.00213623,-0.00488281,0.00640869
11.316,-0.00518799,-0.00427246,-0.00152588,0.00549316
11.322,-0.00640869,-0.0012207,0.000915527,0.00579834
11.328,-0.0088501,-0.00671387,-0.000915527,0.00732422
11.334,-0.00183105,-0.00579834,-0.00213623,0.00946045
11.34,-0.00701904,-0.00274658,-0.00213623,0.00488281
11.346,-0.00823975,-0.00976563,-0.00305176,0.00793457
11.352,-0.00762939,-0.000305176,0.00305176,0.0012207
11.358,-0.00671387,-0.00946045,0.00152588,0.00549316
11.364,-0.00457764,-0.00549316,-0.0106812,0.00579834
11.37,-0.00701904,-0.00244141,-0.00488281,0.00732422
11.376,-0.00274658,-0.000305176,-0.00152588,0.00946045
11.382,-0.0012207,-0.00335693,-0.000610352,0.00793457
11.388,-0.00732422,-0.00701904,-0.00366211,0.00915527
11.394,-0.00640869,-0.00244141,0.00152588,0.00762939
11.4,-0.00518799,-0.00366211,-0.00518799,0.00518799
11.406,-0.0088501,-0.000915527,-0.00549316,0.00335693
11.412,-0.00427246,-0.00579834,-0.00396729,0.00549316
11.418,-0.00701904,-0.00152588,-0.00152588,0.00671387
11.424,-0.00793457,0.00152588,-0.00640869,0.00793457
11.43,-0.00549316,-0.00305176,0.00274658,0.00549316
11.436,-0.00244141,-0.000915527,0.00183105,0.0125122
11.442,-0.00823975,-0.00488281,-0.00244141,0.00579834
11.448,-0.00793457,-0.00732422,-0.000305176,0.00762939
11.454,-0.00793457,-0.00915527,0.000305176,0.0109863
11.46,-0.00701904,-0.00427246,-0.00549316,0.010376
11.466,-0.00183105,-0.00152588,-0.00152588,0.00457764
11.472,-0.00732422,-0.00549316,-0.000610352,0.00793457
11.478,-0.00335693,-0.00579834,0.00183105,0.00671387
11.484,-0.00579834,-0.00305176,-0.0112915,0.00732422
11.49,-0.00396729,0.000305176,-0.00152588,0.00427246
11.496,-0.00579834,-0.00427246,0.00457764,0.00549316
11.502,-0.00610352,0,-0.000915527,0.00762939
11.508,-0.00305176,-0.00244141,-0.00183105,0.00823975
11.514,-0.0119019,-0.00396729,0.00366211,0.00732422
11.52,-0.00823975,-0.00427246,-0.00640869,0.00732422
11.526,-0.00946045,-0.00396729,-0.00976563,0.00640869
11.532,-0.00671387,-0.00701904,-0.00183105,0.00518799
11.538,-0.000610352,-0.00305176,0.00213623,0.00762939
11.544,0.000915527,-0.00244141,-0.00152588,0.00793457
11.55,-0.00427246,-0.0012207,-0.00152588,0.00549316
11.556,-0.0112915,-0.00671387,0.00396729,0.00274658
11.562,-0.010376,-0.00488281,-0.00457764,0.00793457
11.568,-0.00366211,-0.000610352,-0.00274658,0.00915527
11.574,-0.00701904,-0.00427246,-0.00305176,0.00823975
11.58,-0.00823975,-0.00518799,-0.00549316,0.00823975
11.586,-0.00640869,-0.00579834,-0.000305176,0.00701904
11.592,-0.00823975,-0.00579834,-0.00366211,0.00396729
11.598,-0.00976563,-0.000305176,-0.0088501,0.00610352
11.604,-0.00457764,-0.00396729,-0.000610352,0.0109863
11.61,-0.00335693,-0.00518799,-0.000305176,0.00671387
11.616,-0.00244141,-0.00274658,0,0.00701904
11.622,-0.0115967,-0.00152588,-0.00396729,0.00762939
11.628,-0.00762939,-0.00396729,-0.000610352,0.00732422
11.634,-0.00701904,-0.00488281,-0.0100708,0.00732422
11.64,-0.00335693,-0.00518799,-0.00457764,0.00579834
11.646,-0.00213623,-0.00366211,0.00213623,0.00183105
11.652,-0.0125122,-0.00213623,-0.0012207,0
11.658,-0.00488281,-0.00457764,-0.00366211,0.00671387
11.664,-0.00640869,-0.00274658,-0.000305176,0.0112915
11.67,-0.00610352,-0.00244141,-0.00183105,0.0119019
11.676,-0.00823975,-0.00366211,0.000610352,0.00793457
11.682,-0.00488281,-0.00579834,0.000305176,0.00671387
11.688,-0.00335693,-0.000610352,-0.00244141,0.00579834
11.694,-0.0088501,-0.00793457,-0.000305176,0.00976563
11.7,-0.00671387,-0.00274658,-0.0088501,0.00976563
11.706,-0.0112915,-0.000610352,-0.00549316,0.00671387
11.712,-0.00671387,-0.00335693,-0.0012207,0.00640869
11.718,-0.0012207,-0.00640869,-0.000915527,0.00762939
11.724,-0.0012207,-0.00183105,0.00518799,0.00671387
11.73,-0.00671387,-0.00335693,-0.00274658,0.00946045
11.736,-0.00671387,-0.00244141,-0.00183105,0.0167847
11.742,-0.0088501,-0.00274658,-0.00793457,0.0186157
11.748,-0.00335693,-0.00152588,-0.000915527,0.00274658
11.754,-0.00732422,-0.00823975,-0.000915527,-0.0088501
11.76,-0.00671387,-0.00701904,-0.000610352,-0.0146484
11.766,-0.00701904,-0.00305176,-0.00457764,-0.0131226
11.772,-0.00640869,-0.00152588,-0.000915527,0.00488281
11.778,-0.00701904,-0.00213623,-0.00335693,0.0253296
11.784,-0.00427246,0.000610352,0.00305176,0.0323486
11.79,-0.00976563,-0.00366211,-0.00213623,0.0177002
11.796,-0.00549316,-0.00457764,-0.00213623,0.00488281
11.802,-0.00762939,-0.00335693,-0.00213623,0.00274658
11.808,-0.00610352,-0.00518799,-0.000610352,0.00488281
11.814,-0.00946045,-0.00488281,-0.00488281,0.00518799
11.82,-0.00579834,-0.00244141,-0.00640869,0.00610352
11.826,-0.00274658,-0.00305176,0.000610352,0.00610352
11.832,-0.00366211,-0.00183105,-0.00244141,0.00457764
11.838,-0.00823975,-0.00427246,-0.000305176,0.00823975
11.844,-0.0088501,-0.00549316,-0.00335693,0.00946045
11.85,-0.00915527,0.00152588,-0.00762939,0.0112915
11.856,-0.00457764,-0.00488281,-0.000915527,0.00579834
11.862,-0.00396729,-0.00488281,-0.000305176,0.00732422
11.868,-0.0125122,-0.00518799,-0.00488281,0.00579834
11.874,-0.00427246,-0.00244141,-0.00610352,0.00335693
11.88,-0.00335693,0.00213623,0.00274658,0.00732422
11.886,-0.0100708,-0.00335693,-0.00152588,0.00549316
11.892,-0.00854492,-0.00732422,-0.00244141,0.00793457
11.898,-0.00946045,-0.00183105,-0.00854492,0.010376
11.904,-0.00427246,-0.00335693,-0.00152588,0.00915527
11.91,-0.00640869,-0.00579834,-0.00457764,0.00579834
11.916,-0.00274658,-0.00610352,0.00610352,0.00579834
11.922,-0.00579834,-0.00396729,-0.00427246,0.00488281
11.928,-0.00823975,-0.00183105,-0.00823975,0.00793457
11.934,-0.00854492,-0.00335693,0.00183105,0.0106812
11.94,-0.00610352,-0.00244141,-0.00183105,0.00579834
11.946,-0.00183105,-0.00244141,0.010376,0.00671387
11.952,-0.00518799,-0.00335693,-0.00518799,0.00579834
11.958,-0.00244141,-0.00244141,-0.00396729,0.00671387
11.964,-0.00488281,-0.00152588,0.00549316,0.00610352
11.97,-0.00457764,-0.00579834,0.00152588,0.00854492
11.976,-0.0100708,-0.00183105,-0.00976563,0.00762939
11.982,-0.010376,-0.0012207,-0.00732422,0.00671387
11.988,-0.00915527,-0.00305176,-0.00427246,0.0088501
11.994,-0.00793457,-0.00762939,0,0.00854492
12,-0.00915527,0.000610352,0.0012207,0.00701904
12.006,-0.00732422,-0.00549316,-0.000915527,0.00518799
12.012,-0.00610352,-0.000915527,-0.00823975,0.00549316
12.018,-0.00396729,-0.00610352,0.00274658,0.00671387
12.024,-0.00396729,-0.00488281,-0.00213623,0.00427246
12.03,-0.00457764,-0.00396729,-0.00427246,0.00854492
12.036,-0.00640869,-0.00518799,-0.00579834,0.00640869
12.042,-0.00549316,-0.00518799,0.00213623,0.00793457
12.048,-0.00549316,-0.00640869,0.00488281,0.0125122
12.054,-0.00335693,-0.00671387,0.00183105,0.00518799
12.06,-0.0100708,-0.00488281,-0.0149536,0.00701904
12.066,-0.0106812,-0.00335693,-0.00274658,0.00793457
12.072,-0.00274658,0.000305176,0.00427246,0.010376
12.078,-0.00457764,-0.000915527,-0.000305176,0.00579834
12.084,-0.00946045,-0.00427246,-0.00671387,0.00793457
12.09,-0.0106812,-0.00274658,-0.00579834,0.00610352
12.096,-0.00274658,-0.00457764,-0.00213623,0.00732422
12.102,-0.00305176,-0.00213623,0.000305176,0.00793457
12.108,-0.00640869,-0.00305176,0.00152588,0.010376
12.114,-0.00762939,-0.00396729,-0.00762939,0.00793457
12.12,-0.0125122,-0.00183105,-0.00457764,0.0112915
12.126,-0.00976563,-0.00488281,0.00488281,0.00518799
12.132,-0.00488281,-0.000610352,0.000305176,0.00946045
12.138,-0.0088501,-0.00457764,-0.0109863,0.010376
12.144,-0.00396729,-0.00366211,-0.00610352,0.00793457
12.15,-0.00152588,-0.00457764,0.00823975,0.00396729
12.156,-0.00213623,-0.00152588,-0.00762939,0.00701904
12.162,-0.00549316,-0.00518799,-0.00640869,0.00457764
12.168,-0.010376,-0.00427246,-0.00274658,0.00793457
12.174,-0.00671387,-0.000915527,-0.000305176,0.00366211
12.18,-0.00549316,-0.00396729,0.00701904,0.00732422
12.186,-0.00366211,-0.00579834,0.000610352,0.00640869
12.192,-0.00549316,-0.00457764,-0.00854492,0.00854492
12.198,-0.00457764,-0.00427246,-0.00915527,0.00762939
12.204,-0.0112915,-0.00274658,-0.00579834,0.00854492
12.21,-0.00946045,-0.00457764,0.00152588,0.000305176
12.216,-0.010376,-0.00244141,0.00366211,0.00457764
12.222,-0.00335693,-0.00213623,-0.00732422,0.0119019
12.228,-0.00518799,-0.00213623,-0.00183105,0.0100708
12.234,-0.00762939,-0.00366211,0.00396729,0.00701904
12.24,-0.00518799,-0.00366211,-0.00183105,0.0100708
12.246,-0.00732422,-0.0012207,-0.00762939,0.00427246
12.252,-0.00640869,-0.00152588,-0.00366211,0.00854492
12.258,-0.00549316,-0.00427246,0.00244141,0.0115967
12.264,-0.00518799,-0.00640869,0.00183105,0.00671387
12.27,-0.00823975,-0.00457764,0.00244141,0.00701904
12.276,-0.00762939,-0.00732422,-0.00274658,0.00640869
12.282,-0.00518799,-0.00366211,-0.00549316,0.00518799
12.288,-0.00549316,-0.00305176,-0.00396729,0.00610352
12.294,-0.00854492,-0.000610352,0,0.00732422
12.3,-0.0125122,-0.0012207,-0.000610352,0.00488281
12.306,-0.00854492,-0.00366211,0.000610352,0.00701904
12.312,-0.00488281,-0.00305176,-0.000915527,0.010376
12.318,-0.00549316,-0.00366211,-0.00518799,0.00946045
12.324,-0.00671387,-0.00396729,-0.0012207,0.0106812
12.33,-0.0088501,-0.00305176,-0.000610352,0.00732422
12.336,-0.00213623,-0.00213623,-0.00549316,0.00793457
12.342,-0.00610352,-0.00213623,-0.00366211,0.0112915
12.348,-0.00640869,-0.00549316,0.0109863,0.00762939
12.354,-0.00579834,-0.00793457,0,0.00518799
12.36,-0.00427246,-0.000305176,-0.0012207,0.00732422
12.366,-0.00793457,-0.00152588,-0.0100708,0.0115967
12.372,-0.00854492,-0.00915527,0.0012207,0.010376
12.378,-0.00732422,-0.00274658,0.00183105,0.0106812
12.384,-0.00305176,-0.00396729,-0.00640869,0.0238037
12.39,-0.00549316,-0.00488281,-0.00610352,0.0100708
12.396,-0.00305176,-0.00244141,0.00183105,-0.0109863
12.402,-0.00396729,-0.00396729,0.00610352,-0.0140381
12.408,-0.00457764,-0.00335693,-0.00976563,-0.0106812
12.414,-0.00457764,-0.000610352,-0.00518799,-0.00549316
12.42,-0.00823975,-0.0012207,0.000305176,0.0204468
12.426,-0.012207,-0.00457764,0.00152588,0.0283813
12.432,-0.00274658,-0.00396729,0.00213623,0.0219727
12.438,-0.00457764,0,-0.0115967,0.0152588
12.444,-0.00457764,-0.00274658,-0.00183105,0.00671387
12.45,-0.00488281,-0.00854492,0.00671387,0.000915527
12.456,-0.00671387,-0.00366211,0.000610352,0.00823975
12.462,-0.00610352,-0.00610352,-0.00549316,0.00244141
12.468,-0.00488281,-0.00335693,-0.00274658,0.00152588
12.474,-0.00274658,-0.00213623,-0.00213623,0.00274658
12.48,-0.00640869,-0.00640869,0.00640869,0.00762939
12.486,-0.00305176,-0.00671387,0.00274658,0.0112915
12.492,-0.000610352,0.000915527,-0.00946045,0.00488281
12.498,-0.00915527,-0.00610352,-0.00366211,0.00915527
12.504,-0.00854492,-0.00701904,0.00946045,0.00701904
12.51,-0.00793457,-0.00244141,-0.0012207,0.00518799
12.516,-0.00762939,-0.00518799,-0.00213623,0.00671387
12.522,-0.00793457,0.0012207,-0.00732422,0.00701904
12.528,-0.00976563,-0.0012207,-0.00305176,0.00823975
12.534,-0.00671387,-0.00213623,-0.00305176,0.00732422
12.54,-0.0088501,-0.00701904,0.000915527,0.0109863
12.546,-0.00457764,-0.00640869,-0.00701904,0.00488281
12.552,-0.0012207,-0.00732422,-0.00366211,0.00366211
12.558,-0.00335693,-0.00183105,0.00305176,0.00793457
12.564,-0.00915527,-0.00366211,0.00152588,0.00610352
12.57,-0.0088501,-0.00152588,-0.000305176,0.00549316
12.576,-0.00793457,0,-0.00793457,0.00854492
12.582,-0.00305176,-0.00274658,0.00274658,0.0106812
12.588,-0.00366211,-0.00640869,-0.00671387,0.00640869
12.594,-0.00640869,-0.00366211,0.00244141,0.00640869
12.6,-0.00274658,-0.00579834,-0.00823975,0.00488281
12.606,-0.00793457,-0.00396729,-0.00549316,0.00915527
12.612,-0.00793457,-0.00946045,0.00335693,0.00854492
12.618,-0.00640869,-0.00152588,0.00640869,0.00579834
12.624,-0.00640869,-0.00183105,-0.00244141,0.00732422
12.63,-0.00732422,-0.00183105,-0.00244141,0.00457764
12.636,-0.00762939,-0.00549316,-0.00305176,0.00610352
12.642,-0.00915527,-0.00488281,-0.00610352,0.00610352
12.648,-0.00274658,-0.000305176,0.00152588,0.0100708
12.654,-0.00610352,-0.00488281,0.00274658,0.0100708
12.66,-0.00823975,-0.00366211,-0.0125122,0.00793457
12.666,-0.00457764,-0.00396729,-0.000610352,0.0088501
12.672,-0.00579834,-0.00366211,-0.00549316,0.00671387
12.678,-0.00549316,-0.00335693,-0.000915527,0.00457764
12.684,-0.00335693,-0.00335693,-0.00305176,0.00946045
12.69,-0.00793457,-0.00213623,-0.00396729,0.00823975
12.696,-0.00915527,-0.00610352,-0.00793457,0.00854492
12.702,-0.00854492,-0.00396729,-0.000915527,0.00823975
12.708,-0.0106812,-0.00305176,0.00335693,0.00701904
12.714,-0.00335693,-0.00488281,0.000610352,0.00640869
12.72,-0.000610352,0.0012207,0.00335693,0.00823975
12.726,-0.00427246,-0.00213623,0.00762939,0.00854492
12.732,-0.00732422,-0.00305176,-0.017395,0.00488281
12.738,-0.00244141,-0.00610352,-0.00793457,0.00640869
12.744,-0.00152588,-0.00518799,-0.000610352,0.00762939
12.75,-0.00823975,-0.00457764,-0.00335693,0.00579834
12.756,-0.00976563,-0.00244141,0.00213623,0.0100708
12.762,-0.0100708,-0.00518799,-0.00701904,0.00610352
12.768,-0.0088501,-0.00244141,-0.00183105,0.00732422
12.774,-0.00854492,-0.00427246,0.00457764,0.00793457
12.78,-0.00335693,-0.0012207,-0.00488281,0.00640869
12.786,-0.00610352,-0.00335693,-0.00823975,0.00671387
12.792,-0.00335693,0,-0.00305176,0.00793457
12.798,-0.0115967,-0.00762939,0.00640869,0.000305176
12.804,-0.0088501,-0.00396729,0.00427246,0.00701904
12.81,-0.000915527,-0.00457764,-0.00671387,0.00762939
12.816,-0.00549316,-0.00701904,0.000610352,0.0112915
12.822,-0.00274658,-0.00183105,-0.00488281,0.0088501
12.828,-0.00610352,-0.00579834,-0.00183105,0.00518799
12.834,-0.00701904,-0.00244141,-0.000610352,0.010376
12.84,-0.00518799,0,-0.00549316,0.0088501
12.846,-0.0012207,-0.00213623,-0.00549316,0.00701904
12.852,-0.00335693,-0.000915527,-0.00305176,0.00488281
12.858,-0.0109863,-0.00579834,-0.0088501,0.0088501
12.864,-0.0109863,-0.00335693,0.00732422,0.00671387
12.87,-0.0088501,-0.00732422,-0.00244141,0.00732422
12.876,-0.00915527,-0.00488281,-0.00762939,0.0131226
12.882,-0.00854492,-0.00610352,-0.00274658,0.00946045
12.888,-0.00335693,-0.00183105,0.00366211,0.00366211
12.894,-0.00549316,-0.00305176,-0.00213623,0.00610352
12.9,-0.00640869,-0.00549316,-0.0152588,0.00335693
12.906,-0.00457764,-0.00518799,0.00335693,0.00244141
12.912,-0.00823975,-0.0012207,-0.00518799,0.00488281
12.918,-0.00213623,-0.00305176,0.00213623,0.00854492
12.924,-0.00457764,-0.00610352,0.000915527,0.00976563
12.93,-0.00854492,-0.0088501,-0.00823975,0.00915527
12.936,-0.00823975,-0.00579834,0.00671387,0.00915527
12.942,-0.00213623,0.0012207,0.000305176,0.00946045
12.948,-0.00274658,-0.00305176,-0.00335693,0.0112915
12.954,-0.0115967,-0.00396729,-0.00701904,0.00762939
12.96,-0.0125122,-0.00427246,0.00183105,0.00427246
12.966,-0.00396729,-0.00305176,-0.00152588,0.00854492
12.972,-0.00366211,-0.00274658,-0.00366211,0.00915527
12.978,-0.00915527,0.000610352,-0.0012207,0.00427246
12.984,-0.00549316,-0.00183105,-0.00183105,0.00671387
12.99,-0.00732422,-0.00427246,0,0.00549316
12.996,-0.0128174,-0.00427246,-0.00457764,0.00854492
13.002,-0.00701904,-0.00549316,-0.00305176,0.017395
13.008,0.000305176,-0.00579834,0.000305176,0.0167847
13.014,-0.00640869,-0.0012207,0.00244141,0.00396729
13.02,-0.0100708,-0.00488281,0.00946045,-0.00579834
13.026,-0.00518799,-0.000915527,-0.00427246,-0.0115967
13.032,-0.00366211,-0.00152588,-0.00793457,-0.0137329
13.038,-0.00823975,-0.00305176,-0.00640869,-0.000305176
13.044,-0.00915527,-0.00183105,-0.00274658,0.022583
13.05,-0.00274658,-0.00305176,-0.000305176,0.0314331
13.056,-0.00457764,-0.00396729,-0.00366211,0.020752
13.062,-0.00701904,-0.00549316,-0.0012207,0.0137329
13.068,-0.00976563,-0.000915527,0.00579834,0.00488281
13.074,-0.00946045,-0.00274658,-0.00518799,0.00152588
13.08,-0.00549316,-0.00549316,-0.00305176,0.00610352
13.086,-0.00640869,-0.00488281,-0.00427246,0.00183105
13.092,-0.00854492,-0.00549316,0.0012207,0.00518799
13.098,-0.00976563,-0.00335693,-0.00396729,0.00671387
13.104,-0.00335693,-0.00488281,-0.00274658,0.00518799
13.11,-0.00823975,-0.00152588,0,0.00854492
13.116,-0.00335693,-0.00427246,-0.00366211,0.00518799
13.122,-0.00946045,-0.00610352,0.00274658,0.00793457
13.128,-0.00305176,-0.00183105,-0.0012207,0.00640869
13.134,-0.00762939,-0.000305176,0.00274658,0.00335693
13.14,-0.00549316,-0.00610352,-0.000915527,0.00823975
13.146,-0.00915527,-0.00518799,-0.00518799,0.00854492
13.152,-0.00671387,-0.000915527,-0.000305176,0.00671387
13.158,-0.00488281,-0.00152588,0.000915527,0.00762939
13.164,-0.00549316,-0.00793457,-0.00274658,0.00549316
13.17,-0.00427246,-0.00366211,-0.00518799,0.00762939
13.176,-0.00518799,-0.00732422,0.00305176,0.010376
13.182,-0.00701904,-0.00549316,-0.00396729,0.00671387
13.188,-0.0106812,-0.00518799,-0.00335693,0.00732422
13.194,-0.0100708,-0.00396729,0.00213623,0.00579834
13.2,-0.00854492,-0.00213623,-0.00274658,0.00732422
13.206,-0.00518799,-0.00244141,0.00366211,0.00823975
13.212,-0.00732422,-0.0012207,0.00732422,0.00457764
13.218,-0.00549316,-0.00549316,-0.00274658,0.00549316
13.224,0.000610352,-0.00152588,-0.00762939,0.00579834
13.23,-0.00610352,-0.0012207,-0.00274658,0.00793457
13.236,-0.0109863,-0.00732422,-0.00213623,0.00762939
13.242,-0.015564,-0.00366211,-0.00579834,0.0106812
13.248,-0.00610352,-0.00701904,-0.010376,0.00946045
13.254,-0.00579834,-0.0012207,0.0012207,0.00854492
13.26,-0.00732422,-0.00457764,-0.0012207,0.0100708
13.266,-0.00457764,-0.00457764,0.000610352,0.00518799
13.272,-0.00549316,-0.00457764,-0.00671387,0.00488281
13.278,0.000305176,-0.00305176,-0.00579834,0.00610352
13.284,-0.000915527,-0.00457764,-0.00427246,0.00366211
13.29,-0.00305176,0.000305176,0.00335693,0.00549316
13.296,-0.0112915,-0.00488281,0.00793457,0.0115967
13.302,-0.00732422,-0.00396729,-0.00732422,0.0100708
13.308,-0.00396729,-0.00518799,-0.00335693,0.00671387
13.314,-0.00793457,-0.00640869,-0.00579834,0.0125122
13.32,-0.00976563,-0.0012207,-0.00335693,0.00732422
13.326,-0.00427246,-0.00305176,-0.00579834,0.00457764
13.332,-0.010376,-0.00518799,-0.0012207,0.010376
13.338,-0.00183105,-0.00335693,0,0.00976563
13.344,-0.00488281,-0.00152588,-0.00274658,0.00671387
13.35,-0.00732422,-0.00366211,0.00427246,0.00579834
13.356,-0.00732422,-0.00457764,-0.0088501,0.00457764
13.362,-0.00823975,0.000305176,-0.0131226,0.00335693
13.368,-0.0106812,-0.00579834,0.00518799,0.00610352
13.374,-0.00274658,-0.00396729,0.00396729,0.0115967
13.38,-0.00427246,-0.00396729,-0.00823975,0.00396729
13.386,-0.00549316,-0.000610352,-0.00427246,0.00732422
13.392,-0.000305176,-0.00183105,-0.00274658,0.00732422
13.398,-0.00488281,-0.00183105,0.00152588,0.00671387
13.404,-0.00488281,-0.00518799,-0.000610352,0.00701904
13.41,-0.010376,0.00152588,-0.00244141,0.00579834
13.416,-0.00732422,-0.00335693,-0.00427246,0.00640869
13.422,-0.00732422,-0.00549316,-0.000915527,0.00701904
13.428,-0.00518799,-0.00579834,-0.00427246,0.00762939
13.434,-0.00427246,-0.00579834,-0.00793457,0.00732422
13.44,-0.00183105,0.000305176,-0.00579834,0.00671387
13.446,-0.00488281,-0.00274658,-0.00396729,0.00366211
13.452,-0.0125122,-0.00183105,0.00152588,0.00762939
13.458,-0.00915527,-0.00854492,0.00183105,0.00946045
13.464,-0.00946045,-0.00640869,-0.00640869,0.010376
13.47,-0.00488281,-0.00366211,-0.00701904,0.00640869
13.476,-0.00457764,-0.0012207,0.00213623,0.00762939
13.482,-0.00396729,-0.00671387,0.00274658,0.0128174
13.488,-0.00701904,-0.00305176,-0.00457764,0.00701904
13.494,-0.00854492,-0.00213623,-0.00488281,0.00946045
13.5,-0.00579834,-0.00335693,-0.00518799,0.00274658
13.506,-0.00762939,-0.00305176,-0.000915527,0.00305176
13.512,-0.00701904,-0.00579834,0.000915527,0.00152588
13.518,-0.00457764,-0.00457764,0.00396729,0.00579834
13.524,-0.000610352,0.00305176,0.00396729,0.00946045
13.53,-0.00366211,-0.00396729,-0.000305176,0.00396729
13.536,-0.00732422,-0.00610352,-0.00640869,0.00610352
13.542,-0.00976563,-0.0012207,-0.00183105,0.0128174
13.548,-0.00335693,-0.000610352,-0.00244141,0.00671387
13.554,-0.00762939,-0.00488281,0.000915527,0.0143433
13.56,-0.0100708,-0.00305176,0.00305176,0.00701904
13.566,-0.00823975,-0.00427246,0.000305176,0.00976563
13.572,-0.00762939,-0.00427246,-0.0012207,0.00457764
13.578,-0.00335693,-0.00640869,-0.00305176,0.00732422
13.584,-0.00518799,-0.00640869,-0.00701904,0.00427246
13.59,0.000915527,-0.00366211,-0.00183105,0.00610352
13.596,-0.00640869,-0.00244141,-0.00610352,0.00427246
13.602,-0.00671387,-0.00366211,-0.00366211,0.0115967
13.608,-0.0161743,-0.00518799,-0.000305176,0.0119019
13.614,-0.0125122,-0.00610352,-0.00244141,0.0137329
13.62,0.012207,-0.00335693,0.00732422,0.000915527
13.626,-0.000915527,-0.00396729,-0.0170898,-0.0115967
13.632,-0.0161743,-0.000610352,-0.00854492,-0.0183105
13.638,-0.0137329,0.0012207,0.00549316,-0.00976563
13.644,-0.00183105,-0.00396729,0.00274658,0.017395
13.65,-0.00762939,-0.00274658,-0.000915527,0.0265503
13.656,-0.0106812,-0.000915527,0.000915527,0.022583
13.662,-0.0109863,-0.00244141,-0.000610352,0.0167847
13.668,-0.00579834,-0.00335693,-0.00488281,0.00854492
13.674,-0.00366211,-0.00183105,0.00244141,0.00305176
13.68,-0.00244141,-0.00183105,-0.00488281,0
13.686,-0.00579834,-0.00396729,-0.0012207,0.00427246
13.692,-0.00183105,-0.00579834,0.00152588,0.00335693
13.698,-0.00579834,-0.00183105,-0.00762939,0.00610352
13.704,-0.00854492,-0.00183105,-0.00457764,0.00579834
13.71,-0.0100708,-0.0012207,-0.00335693,0.00640869
13.716,-0.010376,-0.0088501,0.00640869,0.00579834
13.722,-0.00274658,-0.00732422,-0.00274658,0.0100708
13.728,-0.000305176,0.00213623,-0.00335693,0.00518799
13.734,-0.00701904,0.000610352,-0.00396729,0.00305176
13.74,-0.00274658,-0.00457764,-0.00152588,0.00671387
13.746,-0.00701904,-0.00488281,0.00152588,0.00610352
13.752,-0.00915527,-0.00152588,-0.00366211,0.0119019
13.758,-0.0106812,-0.000305176,-0.00610352,0.00793457
13.764,-0.00610352,-0.00335693,-0.0012207,0.0100708
13.77,-0.00671387,-0.0012207,-0.00396729,0.00854492
13.776,-0.00732422,-0.00518799,0.00305176,0.00549316
13.782,-0.00274658,-0.00457764,0.00213623,0.00762939
13.788,-0.00549316,-0.00396729,-0.00274658,0.00549316
13.794,-0.00457764,-0.00640869,-0.00183105,0.00549316
13.8,-0.00274658,-0.00579834,0.00732422,0.00427246
13.806,-0.00427246,-0.00183105,-0.00305176,0.00427246
13.812,-0.00335693,-0.00396729,-0.00457764,0.00518799
13.818,-0.00366211,-0.00152588,-0.00488281,0.00762939
13.824,-0.00427246,-0.000610352,-0.00213623,0.010376
13.83,-0.00518799,-0.00305176,-0.000915527,0.00701904
13.836,-0.00366211,-0.00396729,-0.0012207,0.00610352
13.842,-0.00701904,-0.00366211,-0.00366211,0.00732422
13.848,-0.0119019,-0.00183105,-0.00579834,0.00762939
13.854,-0.00610352,-0.00762939,0.000610352,0.00823975
13.86,-0.000915527,-0.00610352,-0.00152588,0.00610352
13.866,-0.00457764,-0.00244141,-0.00183105,0.00305176
13.872,-0.00518799,-0.00854492,-0.00610352,0.00396729
13.878,-0.00396729,-0.00305176,-0.00396729,0.00732422
13.884,-0.0100708,-0.00335693,-0.0012207,0.00823975
13.89,-0.00762939,-0.00396729,0.00488281,0.00671387
13.896,-0.00915527,-0.00610352,-0.00396729,0.00488281
13.902,-0.00732422,-0.000610352,-0.00488281,0.00793457
13.908,-0.00823975,-0.00274658,-0.00305176,0.0100708
13.914,-0.00701904,-0.00518799,0.00335693,0.00457764
13.92,-0.00366211,-0.00366211,-0.00946045,0.00823975
13.926,-0.00488281,-0.00610352,0,0.00457764
13.932,-0.00610352,-0.00518799,-0.00152588,0.00671387
13.938,-0.0088501,-0.00427246,-0.00244141,0.00976563
13.944,-0.00946045,-0.00579834,-0.00427246,0.00610352
13.95,-0.0088501,-0.000305176,-0.00366211,0.00549316
13.956,-0.00915527,-0.0140381,-0.00274658,0.00366211
13.962,-0.00762939,-0.00823975,0.00457764,0.00701904
13.968,-0.00366211,-0.00366211,-0.00305176,0.00793457
13.974,-0.00244141,0.000610352,-0.00579834,0.0134277
13.98,-0.00823975,-0.00213623,-0.00335693,0.00823975
13.986,-0.00579834,0,-0.00488281,0.00610352
13.992,0.0012207,-0.00671387,0.00305176,0.00671387
13.998,-0.00640869,-0.00427246,0.00549316,0.00732422
14.004,-0.00915527,-0.00457764,-0.00457764,0.00640869
14.01,-0.00732422,-0.0131226,-0.00427246,0.00549316
14.016,0.000915527,-0.00244141,0.00762939,0.0106812
14.022,-0.00732422,-0.00305176,0.00183105,0.00518799
14.028,-0.00946045,0.000915527,-0.00427246,0.00518799
14.034,-0.0100708,-0.00610352,-0.00671387,0.00549316
14.04,-0.00915527,-0.00396729,0,0.00823975
14.046,-0.00640869,-0.0012207,-0.00396729,0.00610352
14.052,-0.00396729,-0.00366211,0.00152588,0.00610352
14.058,0.0012207,0.000610352,-0.00701904,0.00701904
14.064,-0.00976563,-0.00976563,-0.00274658,0.00549316
14.07,-0.00579834,-0.00335693,0.00183105,0.00976563
14.076,-0.0112915,-0.00579834,0.000610352,0.00793457
14.082,-0.00274658,-0.00762939,-0.000610352,0.0100708
14.088,-0.00640869,-0.00610352,-0.00762939,0.00213623
14.094,-0.00335693,-0.00854492,-0.00366211,0.00579834
14.1,-0.00671387,0.000610352,0,0.00366211
14.106,-0.00976563,-0.00671387,-0.00335693,0.0119019
14.112,-0.00457764,-0.000305176,-0.00244141,0.00701904
14.118,-0.00701904,-0.00274658,0.00183105,0.00213623
14.124,-0.0088501,-0.00274658,-0.00396729,0.0100708
14.13,-0.00671387,-0.00305176,-0.000305176,0.012207
14.136,-0.00793457,-0.00244141,-0.00213623,0.00305176
14.142,-0.00732422,-0.00213623,0.00152588,0.00671387
14.148,-0.010376,-0.00610352,-0.00701904,0.00213623
14.154,-0.00457764,0.000305176,-0.00305176,0.00579834
14.16,-0.00183105,-0.00244141,0.00213623,0.00366211
14.166,-0.00579834,-0.00671387,0.000915527,0.00610352
14.172,-0.00946045,-0.00671387,-0.00640869,0.00518799
14.178,-0.00946045,-0.00762939,0.000610352,0.00762939
14.184,-0.00946045,0.00457764,-0.000915527,0.00701904
14.19,-0.00457764,-0.00213623,-0.00396729,0.00701904
14.196,-0.00701904,-0.000305176,-0.00305176,0.0234985
14.202,-0.00488281,-0.00274658,0.000610352,0.0274658
14.208,-0.00610352,-0.0012207,0.00183105,0.0119019
14.214,-0.00793457,-0.00335693,-0.00366211,-0.0012207
14.22,-0.00457764,-0.00549316,-0.00762939,-0.0189209
14.226,-0.0088501,-0.00549316,-0.0012207,-0.0198364
14.232,-0.00793457,-0.00244141,0.000305176,-0.00488281
14.238,-0.00518799,-0.00701904,0,0.0119019
14.244,-0.00549316,-0.00427246,-0.00640869,0.027771
14.25,-0.00701904,0,0.000915527,0.0283813
14.256,-0.00579834,-0.00579834,0.000305176,0.0137329
14.262,-0.00366211,-0.00366211,0.000915527,0.00305176
14.268,-0.00762939,-0.00427246,0.00152588,0.010376
14.274,-0.00854492,-0.00396729,-0.00518799,0.00396729
14.28,-0.00762939,-0.00366211,-0.00549316,0.00671387
14.286,-0.00915527,-0.000915527,-0.00183105,0.00427246
14.292,-0.00854492,-0.000915527,-0.000305176,0.00305176
14.298,-0.00610352,-0.00396729,-0.00274658,0.000915527
14.304,-0.00396729,-0.00366211,-0.000915527,0.00976563
14.31,-0.00427246,-0.00274658,-0.00152588,0.012207
14.316,-0.00457764,-0.00579834,0.00305176,0.00915527
14.322,-0.00671387,-0.00335693,-0.00274658,0.00793457
14.328,-0.00823975,-0.00396729,-0.00854492,0.00335693
14.334,-0.00640869,-0.00366211,-0.000915527,0.00488281
14.34,-0.00244141,0.0012207,-0.0012207,0.00671387
14.346,-0.00610352,-0.00396729,-0.00335693,0.0100708
14.352,-0.00640869,-0.00396729,-0.00427246,0.00976563
14.358,-0.0140381,-0.00396729,-0.0012207,0.00427246
14.364,-0.00732422,-0.00488281,0.00152588,0.0012207
14.37,-0.00518799,-0.00396729,-0.00183105,0.00366211
14.376,-0.00671387,-0.00640869,0.00396729,0.00457764
14.382,-0.00183105,-0.00488281,-0.000610352,0.00518799
14.388,-0.00274658,0.00183105,-0.00396729,0.00671387
14.394,-0.00488281,-0.00457764,-0.00640869,0.00701904
14.4,-0.00274658,-0.0012207,-0.00518799,0.0088501
14.406,-0.00640869,-0.00427246,-0.0012207,0.00732422
14.412,-0.0106812,-0.00732422,0.0012207,0.0125122
14.418,-0.0109863,-0.00671387,-0.0012207,0.00640869
14.424,-0.00854492,-0.00518799,0,0.00518799
14.43,-0.000305176,0.00213623,0.00335693,0.00579834
14.436,-0.00976563,-0.00274658,-0.00305176,0.00732422
14.442,-0.00762939,-0.00152588,-0.0012207,0.00732422
14.448,-0.00457764,-0.00366211,-0.00854492,0.00732422
14.454,-0.00701904,-0.00427246,-0.00457764,0.00793457
14.46,-0.00457764,-0.00427246,-0.000610352,0.0106812
14.466,-0.00366211,-0.00762939,-0.00518799,0.00946045
14.472,-0.00396729,-0.000610352,-0.00213623,0.00244141
14.478,-0.00640869,-0.0012207,-0.00244141,0.00701904
14.484,-0.00701904,-0.00213623,0.00579834,0.010376
14.49,-0.00823975,-0.00305176,-0.00610352,0.00549316
14.496,-0.00671387,-0.00915527,-0.00457764,0.010376
