1.086,1.092,1.098,1.104,1.11,1.116,1.122,1.128,1.134,1.14,1.146,1.152,1.158,1.164,1.17,1.176,1.182,1.188,1.194,1.2,1.206,1.212,1.218,1.224,1.23,1.236,1.242,1.248,1.254,1.26,1.266,1.272,1.278,1.284,1.29,1.296,1.302,1.308,1.314,1.32,1.326,1.332,1.338,1.344,1.35,1.356,1.362,1.368,1.374,1.38,1.386,1.392,1.398,1.404,1.41,1.416,1.422,1.428,1.434,1.44,1.446,1.452,1.458,1.464,1.47,1.476,1.482,1.488,1.494,1.5,1.506,1.512,1.518,1.524,1.53,1.536,1.542,1.548,1.554,1.56,1.566,1.572,1.578,1.584,1.59,1.596,1.602,1.608,1.614,1.62,1.626,1.632,1.638,1.644,1.65,1.656,1.662,1.668,1.674,1.68,1.686,1.692,1.698,1.704,1.71,1.716,1.722,1.728,1.734,1.74,1.746,1.752,1.758,1.764,1.77,1.776,1.782,1.788,1.794,1.8,1.806,1.812,1.818,1.824,1.83,1.836,1.842,1.848,1.854,1.86,1.866,1.872,1.878,1.884,1.89,1.896,1.902,1.908,1.914,1.92,1.926,1.932,1.938,1.944,1.95,1.956,1.962,1.968,1.974,1.98,1.986,1.992,1.998,2.004,2.01,2.016,2.022,2.028,2.034,2.04,2.046,2.052,2.058,2.064,2.07,2.076,2.082,2.088,2.094,2.1,2.106,2.112,2.118,2.124,2.13,2.136,2.142,2.148,2.154,2.16,2.166,2.172,2.178,2.184,2.19,2.196,2.202,2.208,2.214,2.22,2.226,2.232,2.238,2.244,2.25,2.256,2.262,2.268,2.274,2.28,2.286,2.292,2.298,2.304,2.31,2.316,2.322,2.328,2.334,2.34,2.346,2.352,2.358,2.364,2.37,2.376,2.382,2.388,2.394,2.4,2.406,2.412,2.418,2.424,2.43,2.436,2.442,2.448,2.454,2.46,2.466,2.472,2.478,2.484,2.49,2.496,2.502,2.508,2.514,2.52,2.526,2.532,2.538,2.544,2.55,2.556,2.562,2.568,2.574,2.58,2.586,2.592,2.598,2.604,2.61,2.616,2.622,2.628,2.634,2.64,2.646,2.652,2.658,2.664,2.67,2.676,2.682,2.688,2.694,2.7,2.706,2.712,2.718,2.724,2.73,2.736,2.742,2.748,2.754,2.76,2.766,2.772,2.778,2.784,2.79,2.796,2.802,2.808,2.814,2.82,2.826,2.832,2.838,2.844,2.85,2.856,2.862,2.868,2.874,2.88,2.886,2.892,2.898,2.904,2.91,2.916,2.922,2.928,2.934,2.94,2.946,2.952,2.958,2.964,2.97,2.976,2.982,2.988,2.994,3,3.006,3.012,3.018,3.024,3.03,3.036,3.042,3.048,3.054,3.06,3.066,3.072,3.078,3.084,3.09,3.096,3.102,3.108,3.114,3.12,3.126,3.132,3.138,3.144,3.15,3.156,3.162,3.168,3.174,3.18,3.186,3.192,3.198,3.204,3.21,3.216,3.222,3.228,3.234,3.24,3.246,3.252,3.258,3.264,3.27,3.276,3.282,3.288,3.294,3.3,3.306,3.312,3.318,3.324,3.33,3.336,3.342,3.348,3.354,3.36,3.366,3.372,3.378,3.384,3.39,3.396,3.402,3.408,3.414,3.42,3.426,3.432,3.438,3.444,3.45,3.456,3.462,3.468,3.474,3.48,3.486,3.492,3.498,3.504,3.51,3.516,3.522,3.528,3.534,3.54,3.546,3.552,3.558,3.564,3.57,3.576,3.582,3.588,3.594,3.6,3.606,3.612,3.618,3.624,3.63,3.636,3.642,3.648,3.654,3.66,3.666,3.672,3.678,3.684,3.69,3.696,3.702,3.708,3.714,3.72,3.726,3.732,3.738,3.744,3.75,3.756,3.762,3.768,3.774,3.78,3.786,3.792,3.798,3.804,3.81,3.816,3.822,3.828,3.834,3.84,3.846,3.852,3.858,3.864,3.87,3.876,3.882,3.888,3.894,3.9,3.906,3.912,3.918,3.924,3.93,3.936,3.942,3.948,3.954,3.96,3.966,3.972,3.978,3.984,3.99,3.996,4.002,4.008,4.014,4.02,4.026,4.032,4.038,4.044,4.05,4.056,4.062,4.068,4.074,4.08,4.086,4.092,4.098,4.104,4.11,4.116,4.122,4.128,4.134,4.14,4.146,4.152,4.158,4.164,4.17,4.176,4.182,4.188,4.194,4.2,4.206,4.212,4.218,4.224,4.23,4.236,4.242,4.248,4.254,4.26,4.266,4.272,4.278,4.284,4.29,4.296,4.302,4.308,4.314,4.32,4.326,4.332,4.338,4.344,4.35,4.356,4.362,4.368,4.374,4.38,4.386,4.392,4.398,4.404,4.41,4.416,4.422,4.428,4.434,4.44,4.446,4.452,4.458,4.464,4.47,4.476,4.482,4.488,4.494,4.5,4.506,4.512,4.518,4.524,4.53,4.536,4.542,4.548,4.554,4.56,4.566,4.572,4.578,4.584,4.59,4.596,4.602,4.608,4.614,4.62,4.626,4.632,4.638,4.644,4.65,4.656,4.662,4.668,4.674,4.68,4.686,4.692,4.698,4.704,4.71,4.716,4.722,4.728,4.734,4.74,4.746,4.752,4.758,4.764,4.77,4.776,4.782,4.788,4.794,4.8,4.806,4.812,4.818,4.824,4.83,4.836,4.842,4.848,4.854,4.86,4.866,4.872,4.878,4.884,4.89,4.896,4.902,4.908,4.914,4.92,4.926,4.932,4.938,4.944,4.95,4.956,4.962,4.968,4.974,4.98,4.986,4.992,4.998,5.004,5.01,5.016,5.022,5.028,5.034,5.04,5.046,5.052,5.058,5.064,5.07,5.076,5.082,5.088,5.094,5.1,5.106,5.112,5.118,5.124,5.13,5.136,5.142,5.148,5.154,5.16,5.166,5.172,5.178,5.184,5.19,5.196,5.202,5.208,5.214,5.22,5.226,5.232,5.238,5.244,5.25,5.256,5.262,5.268,5.274,5.28,5.286,5.292,5.298,5.304,5.31,5.316,5.322,5.328,5.334,5.34,5.346,5.352,5.358,5.364,5.37,5.376,5.382,5.388,5.394,5.4,5.406,5.412,5.418,5.424,5.43,5.436,5.442,5.448,5.454,5.46,5.466,5.472,5.478,5.484,5.49,5.496,5.502,5.508,5.514,5.52,5.526,5.532,5.538,5.544,5.55,5.556,5.562,5.568,5.574,5.58,5.586,5.592,5.598,5.604,5.61,5.616,5.622,5.628,5.634,5.64,5.646,5.652,5.658,5.664,5.67,5.676,5.682,5.688,5.694,5.7,5.706,5.712,5.718,5.724,5.73,5.736,5.742,5.748,5.754,5.76,5.766,5.772,5.778,5.784,5.79,5.796,5.802,5.808,5.814,5.82,5.826,5.832,5.838,5.844,5.85,5.856,5.862,5.868,5.874,5.88,5.886,5.892,5.898,5.904,5.91,5.916,5.922,5.928,5.934,5.94,5.946,5.952,5.958,5.964,5.97,5.976,5.982,5.988,5.994,6,6.006,6.012,6.018,6.024,6.03,6.036,6.042,6.048,6.054,6.06,6.066,6.072,6.078,6.084,6.09,6.096,6.102,6.108,6.114,6.12,6.126,6.132,6.138,6.144,6.15,6.156,6.162,6.168,6.174,6.18,6.186,6.192,6.198,6.204,6.21,6.216,6.222,6.228,6.234,6.24,6.246,6.252,6.258,6.264,6.27,6.276,6.282,6.288,6.294,6.3,6.306,6.312,6.318,6.324,6.33,6.336,6.342,6.348,6.354,6.36,6.366,6.372,6.378,6.384,6.39,6.396,6.402,6.408,6.414,6.42,6.426,6.432,6.438,6.444,6.45,6.456,6.462,6.468,6.474,6.48,6.486,6.492,6.498,6.504,6.51,6.516,6.522,6.528,6.534,6.54,6.546,6.552,6.558,6.564,6.57,6.576,6.582,6.588,6.594,6.6,6.606,6.612,6.618,6.624,6.63,6.636,6.642,6.648,6.654,6.66,6.666,6.672,6.678,6.684,6.69,6.696,6.702,6.708,6.714,6.72,6.726,6.732,6.738,6.744,6.75,6.756,6.762,6.768,6.774,6.78,6.786,6.792,6.798,6.804,6.81,6.816,6.822,6.828,6.834,6.84,6.846,6.852,6.858,6.864,6.87,6.876,6.882,6.888,6.894,6.9,6.906,6.912,6.918,6.924,6.93,6.936,6.942,6.948,6.954,6.96,6.966,6.972,6.978,6.984,6.99,6.996,7.002,7.008,7.014,7.02,7.026,7.032,7.038,7.044,7.05,7.056,7.062,7.068,7.074,7.08,7.086,7.092,7.098,7.104,7.11,7.116,7.122,7.128,7.134,7.14,7.146,7.152,7.158,7.164,7.17,7.176,7.182,7.188,7.194,7.2,7.206,7.212,7.218,7.224,7.23,7.236,7.242,7.248,7.254,7.26,7.266,7.272,7.278,7.284,7.29,7.296,7.302,7.308,7.314,7.32,7.326,7.332,7.338,7.344,7.35,7.356,7.362,7.368,7.374,7.38,7.386,7.392,7.398,7.404,7.41,7.416,7.422,7.428,7.434,7.44,7.446,7.452,7.458,7.464,7.47,7.476,7.482,7.488,7.494,7.5,7.506,7.512,7.518,7.524,7.53,7.536,7.542,7.548,7.554,7.56,7.566,7.572,7.578,7.584,7.59,7.596,7.602,7.608,7.614,7.62,7.626,7.632,7.638,7.644,7.65,7.656,7.662,7.668,7.674,7.68,7.686,7.692,7.698,7.704,7.71,7.716,7.722,7.728,7.734,7.74,7.746,7.752,7.758,7.764,7.77,7.776,7.782,7.788,7.794,7.8,7.806,7.812,7.818,7.824,7.83,7.836,7.842,7.848,7.854,7.86,7.866,7.872,7.878,7.884,7.89,7.896,7.902,7.908,7.914,7.92,7.926,7.932,7.938,7.944,7.95,7.956,7.962,7.968,7.974,7.98,7.986,7.992,7.998,8.004,8.01,8.016,8.022,8.028,8.034,8.04,8.046,8.052,8.058,8.064,8.07,8.076,8.082,8.088,8.094,8.1,8.106,8.112,8.118,8.124,8.13,8.136,8.142,8.148,8.154,8.16,8.166,8.172,8.178,8.184,8.19,8.196,8.202,8.208,8.214,8.22,8.226,8.232,8.238,8.244,8.25,8.256,8.262,8.268,8.274,8.28,8.286,8.292,8.298,8.304,8.31,8.316,8.322,8.328,8.334,8.34,8.346,8.352,8.358,8.364,8.37,8.376,8.382,8.388,8.394,8.4,8.406,8.412,8.418,8.424,8.43,8.436,8.442,8.448,8.454,8.46,8.466,8.472,8.478,8.484,8.49,8.496,8.502,8.508,8.514,8.52,8.526,8.532,8.538,8.544,8.55,8.556,8.562,8.568,8.574,8.58,8.586,8.592,8.598,8.604,8.61,8.616,8.622,8.628,8.634,8.64,8.646,8.652,8.658,8.664,8.67,8.676,8.682,8.688,8.694,8.7,8.706,8.712,8.718,8.724,8.73,8.736,8.742,8.748,8.754,8.76,8.766,8.772,8.778,8.784,8.79,8.796,8.802,8.808,8.814,8.82,8.826,8.832,8.838,8.844,8.85,8.856,8.862,8.868,8.874,8.88,8.886,8.892,8.898,8.904,8.91,8.916,8.922,8.928,8.934,8.94,8.946,8.952,8.958,8.964,8.97,8.976,8.982,8.988,8.994,9,9.006,9.012,9.018,9.024,9.03,9.036,9.042,9.048,9.054,9.06,9.066,9.072,9.078,9.084,9.09,9.096,9.102,9.108,9.114,9.12,9.126,9.132,9.138,9.144,9.15,9.156,9.162,9.168,9.174,9.18,9.186,9.192,9.198,9.204,9.21,9.216,9.222,9.228,9.234,9.24,9.246,9.252,9.258,9.264,9.27,9.276,9.282,9.288,9.294,9.3,9.306,9.312,9.318,9.324,9.33,9.336,9.342,9.348,9.354,9.36,9.366,9.372,9.378,9.384,9.39,9.396,9.402,9.408,9.414,9.42,9.426,9.432,9.438,9.444,9.45,9.456,9.462,9.468,9.474,9.48,9.486,9.492,9.498,9.504,9.51,9.516,9.522,9.528,9.534,9.54,9.546,9.552,9.558,9.564,9.57,9.576,9.582,9.588,9.594,9.6,9.606,9.612,9.618,9.624,9.63,9.636,9.642,9.648,9.654,9.66,9.666,9.672,9.678,9.684,9.69,9.696,9.702,9.708,9.714,9.72,9.726,9.732,9.738,9.744,9.75,9.756,9.762,9.768,9.774,9.78,9.786,9.792,9.798,9.804,9.81,9.816,9.822,9.828,9.834,9.84,9.846,9.852,9.858,9.864,9.87,9.876,9.882,9.888,9.894,9.9,9.906,9.912,9.918,9.924,9.93,9.936,9.942,9.948,9.954,9.96,9.966,9.972,9.978,9.984,9.99,9.996,10.002,10.008,10.014,10.02,10.026,10.032,10.038,10.044,10.05,10.056,10.062,10.068,10.074,10.08,10.086,10.092,10.098,10.104,10.11,10.116,10.122,10.128,10.134,10.14,10.146,10.152,10.158,10.164,10.17,10.176,10.182,10.188,10.194,10.2,10.206,10.212,10.218,10.224,10.23,10.236,10.242,10.248,10.254,10.26,10.266,10.272,10.278,10.284,10.29,10.296,10.302,10.308,10.314,10.32,10.326,10.332,10.338,10.344,10.35,10.356,10.362,10.368,10.374,10.38,10.386,10.392,10.398,10.404,10.41,10.416,10.422,10.428,10.434,10.44,10.446,10.452,10.458,10.464,10.47,10.476,10.482,10.488,10.494,10.5,10.506,10.512,10.518,10.524,10.53,10.536,10.542,10.548,10.554,10.56,10.566,10.572,10.578,10.584,10.59,10.596,10.602,10.608,10.614,10.62,10.626,10.632,10.638,10.644,10.65,10.656,10.662,10.668,10.674,10.68,10.686,10.692,10.698,10.704,10.71,10.716,10.722,10.728,10.734,10.74,10.746,10.752,10.758,10.764,10.77,10.776,10.782,10.788,10.794,10.8,10.806,10.812,10.818,10.824,10.83,10.836,10.842,10.848,10.854,10.86,10.866,10.872,10.878,10.884,10.89,10.896,10.902,10.908,10.914,10.92,10.926,10.932,10.938,10.944,10.95,10.956,10.962,10.968,10.974,10.98,10.986,10.992,10.998,11.004,11.01,11.016,11.022,11.028,11.034,11.04,11.046,11.052,11.058,11.064,11.07,11.076,11.082,11.088,11.094,11.1,11.106,11.112,11.118,11.124,11.13,11.136,11.142,11.148,11.154,11.16,11.166,11.172,11.178,11.184,11.19,11.196,11.202,11.208,11.214,11.22,11.226,11.232,11.238,11.244,11.25,11.256,11.262,11.268,11.274,11.28,11.286,11.292,11.298,11.304,11.31,11.316,11.322,11.328,11.334,11.34,11.346,11.352,11.358,11.364,11.37,11.376,11.382,11.388,11.394,11.4,11.406,11.412,11.418,11.424,11.43,11.436,11.442,11.448,11.454,11.46,11.466,11.472,11.478,11.484,11.49,11.496,11.502,11.508,11.514,11.52,11.526,11.532,11.538,11.544,11.55,11.556,11.562,11.568,11.574,11.58,11.586,11.592,11.598,11.604,11.61,11.616,11.622,11.628,11.634,11.64,11.646,11.652,11.658,11.664,11.67,11.676,11.682,11.688,11.694,11.7,11.706,11.712,11.718,11.724,11.73,11.736,11.742,11.748,11.754,11.76,11.766,11.772,11.778,11.784,11.79,11.796,11.802,11.808,11.814,11.82,11.826,11.832,11.838,11.844,11.85,11.856,11.862,11.868,11.874,11.88,11.886,11.892,11.898,11.904,11.91,11.916,11.922,11.928,11.934,11.94,11.946,11.952,11.958,11.964,11.97,11.976,11.982,11.988,11.994,12,12.006,12.012,12.018,12.024,12.03,12.036,12.042,12.048,12.054,12.06,12.066,12.072,12.078,12.084,12.09,12.096,12.102,12.108,12.114,12.12,12.126,12.132,12.138,12.144,12.15,12.156,12.162,12.168,12.174,12.18,12.186,12.192,12.198,12.204,12.21,12.216,12.222,12.228,12.234,12.24,12.246,12.252,12.258,12.264,12.27,12.276,12.282,12.288,12.294,12.3,12.306,12.312,12.318,12.324,12.33,12.336,12.342,12.348,12.354,12.36,12.366,12.372,12.378,12.384,12.39,12.396,12.402,12.408,12.414,12.42,12.426,12.432,12.438,12.444,12.45,12.456,12.462,12.468,12.474,12.48,12.486,12.492,12.498,12.504,12.51,12.516,12.522,12.528,12.534,12.54,12.546,12.552,12.558,12.564,12.57,12.576,12.582,12.588,12.594,12.6,12.606,12.612,12.618,12.624,12.63,12.636,12.642,12.648,12.654,12.66,12.666,12.672,12.678,12.684,12.69,12.696,12.702,12.708,12.714,12.72,12.726,12.732,12.738,12.744,12.75,12.756,12.762,12.768,12.774,12.78,12.786,12.792,12.798,12.804,12.81,12.816,12.822,12.828,12.834,12.84,12.846,12.852,12.858,12.864,12.87,12.876,12.882,12.888,12.894,12.9,12.906,12.912,12.918,12.924,12.93,12.936,12.942,12.948,12.954,12.96,12.966,12.972,12.978,12.984,12.99,12.996,13.002,13.008,13.014,13.02,13.026,13.032,13.038,13.044,13.05,13.056,13.062,13.068,13.074,13.08,13.086,13.092,13.098,13.104,13.11,13.116,13.122,13.128,13.134,13.14,13.146,13.152,13.158,13.164,13.17,13.176,13.182,13.188,13.194,13.2,13.206,13.212,13.218,13.224,13.23,13.236,13.242,13.248,13.254,13.26,13.266,13.272,13.278,13.284,13.29,13.296,13.302,13.308,13.314,13.32,13.326,13.332,13.338,13.344,13.35,13.356,13.362,13.368,13.374,13.38,13.386,13.392,13.398,13.404,13.41,13.416,13.422,13.428,13.434,13.44,13.446,13.452,13.458,13.464,13.47,13.476,13.482,13.488,13.494,13.5,13.506,13.512,13.518,13.524,13.53,13.536,13.542,13.548,13.554,13.56,13.566,13.572,13.578,13.584,13.59,13.596,13.602,13.608,13.614,13.62,13.626,13.632,13.638,13.644,13.65,13.656,13.662,13.668,13.674,13.68,13.686,13.692,13.698,13.704,13.71,13.716,13.722,13.728,13.734,13.74,13.746,13.752,13.758,13.764,13.77,13.776,13.782,13.788,13.794,13.8,13.806,13.812,13.818,13.824,13.83,13.836,13.842,13.848,13.854,13.86,13.866,13.872,13.878,13.884,13.89,13.896,13.902,13.908,13.914,13.92,13.926,13.932,13.938,13.944,13.95,13.956,13.962,13.968,13.974,13.98,13.986,13.992,13.998,14.004,14.01,14.016,14.022,14.028,14.034,14.04,14.046,14.052,14.058,14.064,14.07,14.076,14.082,14.088,14.094,14.1,14.106,14.112,14.118,14.124,14.13,14.136,14.142,14.148,14.154,14.16,14.166,14.172,14.178,14.184,14.19,14.196,14.202,14.208,14.214,14.22,14.226,14.232,14.238,14.244,14.25,14.256,14.262,14.268,14.274,14.28,14.286,14.292,14.298,14.304,14.31,14.316,14.322,14.328,14.334,14.34,14.346,14.352,14.358,14.364,14.37,14.376,14.382,14.388,14.394,14.4,14.406,14.412,14.418,14.424,14.43,14.436,14.442,14.448,14.454,14.46,14.466,14.472,14.478,14.484,14.49,14.496,14.502,14.508,14.514,14.52,14.526,14.532,14.538,14.544,14.55,14.556,14.562,14.568,14.574,14.58,14.586,14.592,14.598,14.604,14.61,14.616,14.622,14.628,14.634,14.64,14.646,14.652,14.658,14.664,14.67,14.676,14.682,14.688,14.694,14.7,14.706,14.712,14.718,14.724,14.73,14.736,14.742,14.748,14.754,14.76,14.766,14.772,14.778,14.784,14.79,14.796,14.802,14.808,14.814,14.82,14.826,14.832,14.838,14.844,14.85,14.856,14.862,14.868,14.874,14.88,14.886,14.892,14.898,14.904,14.91,14.916,14.922,14.928,14.934,14.94,14.946,14.952,14.958,14.964,14.97,14.976,14.982,14.988,14.994,15,15.006,15.012,15.018,15.024,15.03,15.036,15.042,15.048,15.054,15.06,15.066,15.072,15.078,15.084,15.09,15.096,15.102,15.108,15.114,15.12,15.126,15.132,15.138,15.144,15.15,15.156,15.162,15.168,15.174,15.18,15.186,15.192,15.198,15.204,15.21,15.216,15.222,15.228,15.234,15.24,15.246,15.252,15.258,15.264,15.27,15.276,15.282,15.288,15.294,15.3,15.306,15.312,15.318,15.324,15.33,15.336,15.342,15.348,15.354,15.36,15.366,15.372,15.378,15.384,15.39,15.396,15.402,15.408,15.414,15.42,15.426,15.432,15.438,15.444,15.45,15.456,15.462,15.468,15.474,15.48,15.486,15.492,15.498,15.504,15.51,15.516,15.522,15.528,15.534,15.54,15.546,15.552,15.558,15.564,15.57,15.576,15.582,15.588,15.594,15.6,15.606,15.612,15.618,15.624,15.63,15.636,15.642,15.648,15.654,15.66,15.666,15.672,15.678,15.684,15.69,15.696,15.702,15.708,15.714,15.72,15.726,15.732,15.738,15.744,15.75,15.756,15.762,15.768,15.774,15.78,15.786,15.792,15.798,15.804,15.81,15.816,15.822,15.828,15.834,15.84,15.846,15.852,15.858,15.864,15.87,15.876,15.882,15.888,15.894,15.9,15.906,15.912,15.918,15.924,15.93,15.936,15.942,15.948,15.954,15.96,15.966,15.972,15.978,15.984,15.99,15.996,16.002,16.008,16.014,16.02,16.026,16.032,16.038,16.044,16.05,16.056,16.062,16.068,16.074,16.08,16.086,16.092,16.098,16.104,16.11,16.116,16.122,16.128,16.134,16.14,16.146,16.152,16.158,16.164,16.17,16.176,16.182,16.188,16.194,16.2,16.206,16.212,16.218,16.224,16.23,16.236,16.242,16.248,16.254,16.26,16.266,16.272,16.278,16.284,16.29,16.296,16.302,16.308,16.314,16.32,16.326,16.332,16.338,16.344,16.35,16.356,16.362,16.368,16.374,16.38,16.386,16.392,16.398,16.404,16.41,16.416,16.422,16.428,16.434,16.44,16.446,16.452,16.458,16.464,16.47,16.476,16.482,16.488,16.494,16.5,16.506,16.512,16.518,16.524,16.53,16.536,16.542,16.548,16.554,16.56,16.566,16.572,16.578,16.584,16.59,16.596,16.602,16.608,16.614,16.62,16.626,16.632,16.638,16.644,16.65,16.656,16.662,16.668,16.674,16.68,16.686,16.692,16.698,16.704,16.71,16.716,16.722,16.728,16.734,16.74,16.746,16.752,16.758,16.764,16.77,16.776,16.782,16.788,16.794,16.8,16.806,16.812,16.818,16.824,16.83,16.836,16.842,16.848,16.854,16.86,16.866,16.872,16.878,16.884,16.89,16.896,16.902,16.908,16.914,16.92,16.926,16.932,16.938,16.944,16.95,16.956,16.962,16.968,16.974,16.98,16.986,16.992,16.998,17.004,17.01,17.016,17.022,17.028,17.034,17.04,17.046,17.052,17.058,17.064,17.07,17.076,17.082,17.088,17.094,17.1,17.106,17.112,17.118,17.124,17.13,17.136,17.142,17.148,17.154,17.16,17.166,17.172,17.178,17.184,17.19,17.196,17.202,17.208,17.214,17.22,17.226,17.232,17.238,17.244,17.25,17.256,17.262,17.268,17.274,17.28,17.286,17.292,17.298,17.304,17.31,17.316,17.322,17.328,17.334,17.34,17.346,17.352,17.358,17.364,17.37,17.376,17.382,17.388,17.394,17.4,17.406,17.412,17.418,17.424,17.43,17.436,17.442,17.448,17.454,17.46,17.466,17.472,17.478,17.484,17.49,17.496,17.502,17.508,17.514,17.52,17.526,17.532,17.538,17.544,17.55,17.556,17.562,17.568,17.574,17.58,17.586,17.592,17.598,17.604,17.61,17.616,17.622,17.628,17.634,17.64,17.646,17.652,17.658,17.664,17.67,17.676,17.682,17.688,17.694,17.7,17.706,17.712,17.718,17.724,17.73,17.736,17.742,17.748,17.754,17.76,17.766,17.772,17.778,17.784,17.79,17.796,17.802,17.808,17.814,17.82,17.826,17.832,17.838,17.844,17.85,17.856,17.862,17.868,17.874,17.88,17.886,17.892,17.898,17.904,17.91,17.916,17.922,17.928,17.934,17.94,17.946,17.952,17.958,17.964,17.97,17.976,17.982,17.988,17.994,18,18.006,18.012,18.018,18.024,18.03,18.036,18.042,18.048,18.054,18.06,18.066,18.072,18.078,18.084,18.09,18.096,18.102,18.108,18.114,18.12,18.126,18.132,18.138,18.144,18.15,18.156,18.162,18.168,18.174,18.18,18.186,18.192,18.198,18.204,18.21,18.216,18.222,18.228,18.234,18.24,18.246,18.252,18.258,18.264,18.27,18.276,18.282,18.288,18.294,18.3,18.306,18.312,18.318,18.324,18.33,18.336,18.342,18.348,18.354,18.36,18.366,18.372,18.378,18.384,18.39,18.396,18.402,18.408,18.414,18.42,18.426,18.432,18.438,18.444,18.45,18.456,18.462,18.468,18.474,18.48,18.486,18.492,18.498,18.504,18.51,18.516,18.522,18.528,18.534,18.54,18.546,18.552,18.558,18.564,18.57,18.576,18.582,18.588,18.594,18.6,18.606,18.612,18.618,18.624,18.63,18.636,18.642,18.648,18.654,18.66,18.666,18.672,18.678,18.684,18.69,18.696,18.702,18.708,18.714,18.72,18.726,18.732,18.738,18.744,18.75,18.756,18.762,18.768,18.774,18.78,18.786,18.792,18.798,18.804,18.81,18.816,18.822,18.828,18.834,18.84,18.846,18.852,18.858,18.864,18.87,18.876,18.882,18.888,18.894,18.9,18.906,18.912,18.918,18.924,18.93,18.936,18.942,18.948,18.954,18.96,18.966,18.972,18.978,18.984,18.99,18.996,19.002,19.008,19.014,19.02,19.026,19.032,19.038,19.044,19.05,19.056,19.062,19.068,19.074,19.08,19.086,19.092,19.098,19.104,19.11,19.116,19.122,19.128,19.134,19.14,19.146,19.152,19.158,19.164,19.17,19.176,19.182,19.188,19.194,19.2,19.206,19.212,19.218,19.224,19.23,19.236,19.242,19.248,19.254,19.26,19.266,19.272,19.278,19.284,19.29,19.296,19.302,19.308,19.314,19.32,19.326,19.332,19.338,19.344,19.35,19.356,19.362,19.368,19.374,19.38,19.386,19.392,19.398,19.404,19.41,19.416,19.422,19.428,19.434,19.44,19.446,19.452,19.458,19.464,19.47,19.476,19.482,19.488,19.494,19.5,19.506,19.512,19.518,19.524,19.53,19.536,19.542,19.548,19.554,19.56,19.566,19.572,19.578,19.584,19.59,19.596,19.602,19.608,19.614,19.62,19.626,19.632,19.638,19.644,19.65,19.656,19.662,19.668,19.674,19.68,19.686,19.692,19.698,19.704,19.71,19.716,19.722,19.728,19.734,19.74,19.746,19.752,19.758,19.764,19.77,19.776,19.782,19.788,19.794,19.8,19.806,19.812,19.818,19.824,19.83,19.836,19.842,19.848,19.854,19.86,19.866,19.872,19.878,19.884,19.89,19.896,19.902,19.908,19.914,19.92,19.926,19.932,19.938,19.944,19.95,19.956,19.962,19.968,19.974,19.98,19.986,19.992,19.998,20.004,20.01,20.016,20.022,20.028,20.034,20.04,20.046,20.052,20.058,20.064,20.07,20.076,20.082,20.088,20.094,20.1,20.106,20.112,20.118,20.124,20.13,20.136,20.142,20.148,20.154,20.16,20.166,20.172,20.178,20.184,20.19,20.196,20.202,20.208,20.214,20.22,20.226,20.232,20.238,20.244,20.25,20.256,20.262,20.268,20.274,20.28,20.286,20.292,20.298,20.304,20.31,20.316,20.322,20.328,20.334,20.34,20.346,20.352,20.358,20.364,20.37,20.376,20.382,20.388,20.394,20.4,20.406,20.412,20.418,20.424,20.43,20.436,20.442,20.448,20.454,20.46,20.466,20.472,20.478,20.484,20.49,20.496,20.502,20.508,20.514,20.52,20.526,20.532,20.538,20.544,20.55,20.556,20.562,20.568,20.574,20.58,20.586,20.592,20.598,20.604,20.61,20.616,20.622,20.628,20.634,20.64,20.646,20.652,20.658,20.664,20.67,20.676,20.682,20.688,20.694,20.7,20.706,20.712,20.718,20.724,20.73,20.736,20.742,20.748,20.754,20.76,20.766,20.772,20.778,20.784,20.79,20.796,20.802,20.808,20.814,20.82,20.826,20.832,20.838,20.844,20.85,20.856,20.862,20.868,20.874,20.88,20.886,20.892,20.898,20.904,20.91,20.916,20.922,20.928,20.934,20.94,20.946,20.952,20.958,20.964,20.97,20.976,20.982,20.988,20.994,21,21.006,21.012,21.018,21.024,21.03,21.036,21.042,21.048,21.054,21.06,21.066,21.072,21.078,21.084,21.09,21.096,21.102,21.108,21.114,21.12,21.126,21.132,21.138,21.144,21.15,21.156,21.162,21.168,21.174,21.18,21.186,21.192,21.198,21.204,21.21,21.216,21.222,21.228,21.234,21.24,21.246,21.252,21.258,21.264,21.27,21.276,21.282,21.288,21.294,21.3,21.306,21.312,21.318,21.324,21.33,21.336,21.342,21.348,21.354,21.36,21.366,21.372,21.378,21.384,21.39,21.396,21.402,21.408,21.414,21.42,21.426,21.432,21.438,21.444,21.45,21.456,21.462,21.468,21.474,21.48,21.486,21.492,21.498,21.504,21.51,21.516,21.522,21.528,21.534,21.54,21.546,21.552,21.558,21.564,21.57,21.576,21.582,21.588,21.594,21.6,21.606,21.612,21.618,21.624,21.63,21.636,21.642,21.648,21.654,21.66,21.666,21.672,21.678,21.684,21.69,21.696,21.702,21.708,21.714,21.72,21.726,21.732,21.738,21.744,21.75,21.756,21.762,21.768,21.774,21.78,21.786,21.792,21.798,21.804,21.81,21.816,21.822,21.828,21.834,21.84,21.846,21.852,21.858,21.864,21.87,21.876,21.882,21.888,21.894,21.9,21.906,21.912,21.918,21.924,21.93,21.936,21.942,21.948,21.954,21.96,21.966,21.972,21.978,21.984,21.99,21.996,22.002,22.008,22.014,22.02,22.026,22.032,22.038,22.044,22.05,22.056,22.062,22.068,22.074,22.08,22.086,22.092,22.098,22.104,22.11,22.116,22.122,22.128,22.134,22.14,22.146,22.152,22.158,22.164,22.17,22.176,22.182,22.188,22.194,22.2,22.206,22.212,22.218,22.224,22.23,22.236,22.242,22.248,22.254,22.26,22.266,22.272,22.278,22.284,22.29,22.296,22.302,22.308,22.314,22.32,22.326,22.332,22.338,22.344,22.35,22.356,22.362,22.368,22.374,22.38,22.386,22.392,22.398,22.404,22.41,22.416,22.422,22.428,22.434,22.44,22.446,22.452,22.458,22.464,22.47,22.476,22.482,22.488,22.494,22.5,22.506,22.512,22.518,22.524,22.53,22.536,22.542,22.548,22.554,22.56,22.566,22.572,22.578,22.584,22.59,22.596,22.602,22.608,22.614,22.62,22.626,22.632,22.638,22.644,22.65,22.656,22.662,22.668,22.674,22.68,22.686,22.692,22.698,22.704,22.71,22.716,22.722,22.728,22.734,22.74,22.746,22.752,22.758,22.764,22.77,22.776,22.782,22.788,22.794,22.8,22.806,22.812,22.818,22.824,22.83,22.836,22.842,22.848,22.854,22.86,22.866,22.872,22.878,22.884,22.89,22.896,22.902,22.908,22.914,22.92,22.926,22.932,22.938,22.944,22.95,22.956,22.962,22.968,22.974,22.98,22.986,22.992,22.998,23.004,23.01,23.016,23.022,23.028,23.034,23.04,23.046,23.052,23.058,23.064,23.07,23.076,23.082,23.088,23.094,23.1,23.106,23.112,23.118,23.124,23.13,23.136,23.142,23.148,23.154,23.16,23.166,23.172,23.178,23.184,23.19,23.196,23.202,23.208,23.214,23.22,23.226,23.232,23.238,23.244,23.25,23.256,23.262,23.268,23.274,23.28,23.286,23.292,23.298,23.304,23.31,23.316,23.322,23.328,23.334,23.34,23.346,23.352,23.358,23.364,23.37,23.376,23.382,23.388,23.394,23.4,23.406,23.412,23.418,23.424,23.43,23.436,23.442,23.448,23.454,23.46,23.466,23.472,23.478,23.484,23.49,23.496,23.502,23.508,23.514,23.52,23.526,23.532,23.538,23.544,23.55,23.556,23.562,23.568,23.574,23.58,23.586,23.592,23.598,23.604,23.61,23.616,23.622,23.628,23.634,23.64,23.646,23.652,23.658,23.664,23.67,23.676,23.682,23.688,23.694,23.7,23.706,23.712,23.718,23.724,23.73,23.736,23.742,23.748,23.754,23.76,23.766,23.772,23.778,23.784,23.79,23.796,23.802,23.808,23.814,23.82,23.826,23.832,23.838,23.844,23.85,23.856,23.862,23.868,23.874,23.88,23.886,23.892,23.898,23.904,23.91,23.916,23.922,23.928,23.934,23.94,23.946,23.952,23.958,23.964,23.97,23.976,23.982,23.988,23.994,24,24.006,24.012,24.018,24.024,24.03,24.036,24.042,24.048,24.054,24.06,24.066,24.072,24.078,24.084,24.09,24.096,24.102,24.108,24.114,24.12,24.126,24.132,24.138,24.144,24.15,24.156,24.162,24.168,24.174,24.18,24.186,24.192,24.198,24.204,24.21,24.216,24.222,24.228,24.234,24.24,24.246,24.252,24.258,24.264,24.27,24.276,24.282,24.288,24.294,24.3,24.306,24.312,24.318,24.324,24.33,24.336,24.342,24.348,24.354,24.36,24.366,24.372,24.378,24.384,24.39,24.396,24.402,24.408,24.414,24.42,24.426,24.432,24.438,24.444,24.45,24.456,24.462,24.468,24.474,24.48,24.486,24.492,24.498,24.504,24.51,24.516,24.522,24.528,24.534,24.54,24.546,24.552,24.558,24.564,24.57,24.576,24.582,24.588,24.594,24.6,24.606,24.612,24.618,24.624,24.63,24.636,24.642,24.648,24.654,24.66,24.666,24.672,24.678,24.684,24.69,24.696,24.702,24.708,24.714,24.72,24.726,24.732,24.738,24.744,24.75,24.756,24.762,24.768,24.774,24.78,24.786,24.792,24.798,24.804,24.81,24.816,24.822,24.828,24.834,24.84,24.846,24.852,24.858,24.864,24.87,24.876,24.882,24.888,24.894,24.9,24.906,24.912,24.918,24.924,24.93,24.936,24.942,24.948,24.954,24.96,24.966,24.972,24.978,24.984,24.99,24.996,25.002,25.008,25.014,25.02,25.026,25.032,25.038,25.044,25.05,25.056,25.062,25.068,25.074,25.08,25.086,25.092,25.098,25.104,25.11,25.116,25.122,25.128,25.134,25.14,25.146,25.152,25.158,25.164,25.17,25.176,25.182,25.188,25.194,25.2,25.206,25.212,25.218,25.224,25.23,25.236,25.242,25.248,25.254,25.26,25.266,25.272,25.278,25.284,25.29,25.296,25.302,25.308,25.314,25.32,25.326,25.332,25.338,25.344,25.35,25.356,25.362,25.368,25.374,25.38,25.386,25.392,25.398,25.404,25.41,25.416,25.422,25.428,25.434,25.44,25.446,25.452,25.458,25.464,25.47,25.476,25.482,25.488,25.494,25.5,25.506,25.512,25.518,25.524,25.53,25.536,25.542,25.548,25.554,25.56,25.566,25.572,25.578,25.584,25.59,25.596,25.602,25.608,25.614,25.62,25.626,25.632,25.638,25.644,25.65,25.656,25.662,25.668,25.674,25.68,25.686,25.692,25.698,25.704,25.71,25.716,25.722,25.728,25.734,25.74,25.746,25.752,25.758,25.764,25.77,25.776,25.782,25.788,25.794,25.8,25.806,25.812,25.818,25.824,25.83,25.836,25.842,25.848,25.854,25.86,25.866,25.872,25.878,25.884,25.89,25.896,25.902,25.908,25.914,25.92,25.926,25.932,25.938,25.944,25.95,25.956,25.962,25.968,25.974,25.98,25.986,25.992,25.998,26.004,26.01,26.016,26.022,26.028,26.034,26.04,26.046,26.052,26.058,26.064,26.07,26.076,26.082,26.088,26.094,26.1,26.106,26.112,26.118,26.124,26.13,26.136,26.142,26.148,26.154,26.16,26.166,26.172,26.178,26.184,26.19,26.196,26.202,26.208,26.214,26.22,26.226,26.232,26.238,26.244,26.25,26.256,26.262,26.268,26.274,26.28,26.286,26.292,26.298,26.304,26.31,26.316,26.322,26.328,26.334,26.34,26.346,26.352,26.358,26.364,26.37,26.376,26.382,26.388,26.394,26.4,26.406,26.412,26.418,26.424,26.43,26.436,26.442,26.448,26.454,26.46,26.466,26.472,26.478,26.484,26.49,26.496,26.502,26.508,26.514,26.52,26.526,26.532,26.538,26.544,26.55,26.556,26.562,26.568,26.574,26.58,26.586,26.592,26.598,26.604,26.61,26.616,26.622,26.628,26.634,26.64,26.646,26.652,26.658,26.664,26.67,26.676,26.682,26.688,26.694,26.7,26.706,26.712,26.718,26.724,26.73,26.736,26.742,26.748,26.754,26.76,26.766,26.772,26.778,26.784,26.79,26.796,26.802,26.808,26.814,26.82,26.826,26.832,26.838,26.844,26.85,26.856,26.862,26.868,26.874,26.88,26.886,26.892,26.898,26.904,26.91,26.916,26.922,26.928,26.934,26.94,26.946,26.952,26.958,26.964,26.97,26.976,26.982,26.988,26.994,27,27.006,27.012,27.018,27.024,27.03,27.036,27.042,27.048,27.054,27.06,27.066,27.072,27.078,27.084,27.09,27.096,27.102,27.108,27.114,27.12,27.126,27.132,27.138,27.144,27.15,27.156,27.162,27.168,27.174,27.18,27.186,27.192,27.198,27.204,27.21,27.216,27.222,27.228,27.234,27.24,27.246,27.252,27.258,27.264,27.27,27.276,27.282,27.288,27.294,27.3,27.306,27.312,27.318,27.324,27.33,27.336,27.342,27.348,27.354,27.36,27.366,27.372,27.378,27.384,27.39,27.396,27.402,27.408,27.414,27.42,27.426,27.432,27.438,27.444,27.45,27.456,27.462,27.468,27.474,27.48,27.486,27.492,27.498,27.504,27.51,27.516,27.522,27.528,27.534,27.54,27.546,27.552,27.558,27.564,27.57,27.576,27.582,27.588,27.594,27.6,27.606,27.612,27.618,27.624,27.63,27.636,27.642,27.648,27.654,27.66,27.666,27.672,27.678,27.684,27.69,27.696,27.702,27.708,27.714,27.72,27.726,27.732,27.738,27.744,27.75,27.756,27.762,27.768,27.774,27.78,27.786,27.792,27.798,27.804,27.81,27.816,27.822,27.828,27.834,27.84,27.846,27.852,27.858,27.864,27.87,27.876,27.882,27.888,27.894,27.9,27.906,27.912,27.918,27.924,27.93,27.936,27.942,27.948,27.954,27.96,27.966,27.972,27.978,27.984,27.99,27.996,28.002,28.008,28.014,28.02,28.026,28.032,28.038,28.044,28.05,28.056,28.062,28.068,28.074,28.08,28.086,28.092,28.098,28.104,28.11,28.116,28.122,28.128,28.134,28.14,28.146,28.152,28.158,28.164,28.17,28.176,28.182,28.188,28.194,28.2,28.206,28.212,28.218,28.224,28.23,28.236,28.242,28.248,28.254,28.26,28.266,28.272,28.278,28.284,28.29,28.296,28.302,28.308,28.314,28.32,28.326,28.332,28.338,28.344,28.35,28.356,28.362,28.368,28.374,28.38,28.386,28.392,28.398,28.404,28.41,28.416,28.422,28.428,28.434,28.44,28.446,28.452,28.458,28.464,28.47,28.476,28.482,28.488,28.494,28.5,28.506,28.512,28.518,28.524,28.53,28.536,28.542,28.548,28.554,28.56,28.566,28.572,28.578,28.584,28.59,28.596,28.602,28.608,28.614,28.62,28.626,28.632,28.638,28.644,28.65,28.656,28.662,28.668,28.674,28.68,28.686,28.692,28.698,28.704,28.71,28.716,28.722,28.728,28.734,28.74,28.746,28.752,28.758,28.764,28.77,28.776,28.782,28.788,28.794,28.8,28.806,28.812,28.818,28.824,28.83,28.836,28.842,28.848,28.854,28.86,28.866,28.872,28.878,28.884,28.89,28.896,28.902,28.908,28.914,28.92,28.926,28.932,28.938,28.944,28.95,28.956,28.962,28.968,28.974,28.98,28.986,28.992,28.998,29.004,29.01,29.016,29.022,29.028,29.034,29.04,29.046,29.052,29.058,29.064,29.07,29.076,29.082,29.088,29.094,29.1,29.106,29.112,29.118,29.124,29.13,29.136,29.142,29.148,29.154,29.16,29.166,29.172,29.178,29.184,29.19,29.196,29.202,29.208,29.214,29.22,29.226,29.232,29.238,29.244,29.25,29.256,29.262,29.268,29.274,29.28,29.286,29.292,29.298,29.304,29.31,29.316,29.322,29.328,29.334,29.34,29.346,29.352,29.358,29.364,29.37,29.376,29.382,29.388,29.394,29.4,29.406,29.412,29.418,29.424,29.43,29.436,29.442,29.448,29.454,29.46,29.466,29.472,29.478,29.484,29.49,29.496,29.502,29.508,29.514,29.52,29.526,29.532,29.538,29.544,29.55,29.556,29.562,29.568,29.574,29.58,29.586,29.592,29.598,29.604,29.61,29.616,29.622,29.628,29.634,29.64,29.646,29.652,29.658,29.664,29.67,29.676,29.682,29.688,29.694,29.7,29.706,29.712,29.718,29.724,29.73,29.736,29.742,29.748,29.754,29.76,29.766,29.772,29.778,29.784,29.79,29.796,29.802,29.808,29.814,29.82,29.826,29.832,29.838,29.844,29.85,29.856,29.862,29.868,29.874,29.88,29.886,29.892,29.898,29.904,29.91,29.916,29.922,29.928,29.934,29.94,29.946,29.952,29.958,29.964,29.97,29.976,29.982,29.988,29.994,30,30.006,30.012,30.018,30.024,30.03,30.036,30.042,30.048,30.054,30.06,30.066,30.072,30.078,30.084,30.09,30.096,30.102,30.108,30.114,30.12,30.126,30.132,30.138,30.144,30.15,30.156,30.162,30.168,30.174,30.18,30.186,30.192,30.198,30.204,30.21,30.216,30.222,30.228,30.234,30.24,30.246,30.252,30.258,30.264,30.27,30.276,30.282,30.288,30.294,30.3,30.306,30.312,30.318,30.324,30.33,30.336,30.342,30.348,30.354,30.36,30.366,30.372,30.378,30.384,30.39,30.396,30.402,30.408,30.414,30.42,30.426,30.432,30.438,30.444,30.45,30.456,30.462,30.468,30.474,30.48,30.486,30.492,30.498,30.504,30.51,30.516,30.522,30.528,30.534,30.54,30.546,30.552,30.558,30.564,30.57,30.576,30.582,30.588,30.594,30.6,30.606,30.612,30.618,30.624,30.63,30.636,30.642,30.648,30.654,30.66,30.666,30.672,30.678,30.684,30.69,30.696,30.702,30.708,30.714,30.72,30.726,30.732,30.738,30.744,30.75,30.756,30.762,30.768,30.774,30.78,30.786,30.792,30.798,30.804,30.81,30.816,30.822,30.828,30.834,30.84,30.846,30.852,30.858,30.864,30.87,30.876,30.882,30.888,30.894,30.9,30.906,30.912,30.918,30.924,30.93,30.936,30.942,30.948,30.954,30.96,30.966,30.972,30.978,30.984,30.99,30.996,31.002,31.008,31.014,31.02,31.026,31.032,31.038,31.044,31.05,31.056,31.062,31.068,31.074,31.08,31.086,31.092,31.098,31.104,31.11,31.116,31.122,31.128,31.134,31.14,31.146,31.152,31.158,31.164,31.17,31.176,31.182,31.188,31.194,31.2,31.206,31.212,31.218,31.224,31.23,31.236,31.242,31.248,31.254,31.26,31.266,31.272,31.278,31.284,31.29,31.296,31.302,31.308,31.314,31.32,31.326,31.332,31.338,31.344,31.35,31.356,31.362,31.368,31.374,31.38,31.386,31.392,31.398,31.404,31.41,31.416,31.422,31.428,31.434,31.44,31.446,31.452,31.458,31.464,31.47,31.476,31.482,31.488,31.494,31.5,31.506,31.512,31.518,31.524,31.53,31.536,31.542,31.548,31.554,31.56,31.566,31.572,31.578,31.584,31.59,31.596,31.602,31.608,31.614,31.62,31.626,31.632,31.638,31.644,31.65,31.656,31.662,31.668,31.674,31.68,31.686,31.692,31.698,31.704,31.71,31.716,31.722,31.728,31.734,31.74,31.746,31.752,31.758,31.764,31.77,31.776,31.782,31.788,31.794,31.8,31.806,31.812,31.818,31.824,31.83,31.836,31.842,31.848,31.854,31.86,31.866,31.872,31.878,31.884,31.89,31.896,31.902,31.908,31.914,31.92,31.926,31.932,31.938,31.944,31.95,31.956,31.962,31.968,31.974,31.98,31.986,31.992,31.998,32.004,32.01,32.016,32.022,32.028,32.034,32.04,32.046,32.052,32.058,32.064,32.07,32.076,32.082,32.088,32.094,32.1,32.106,32.112,32.118,32.124,32.13,32.136,32.142,32.148,32.154,32.16,32.166,32.172,32.178,32.184,32.19,32.196,32.202,32.208,32.214,32.22,32.226,32.232,32.238,32.244,32.25,32.256,32.262,32.268,32.274,32.28,32.286,32.292,32.298,32.304,32.31,32.316,32.322,32.328,32.334,32.34,32.346,32.352,32.358,32.364,32.37,32.376,32.382,32.388,32.394,32.4,32.406,32.412,32.418,32.424,32.43,32.436,32.442,32.448,32.454,32.46,32.466,32.472,32.478,32.484,32.49,32.496,32.502,32.508,32.514,32.52,32.526,32.532,32.538,32.544,32.55,32.556,32.562,32.568,32.574,32.58,32.586,32.592,32.598,32.604,32.61,32.616,32.622,32.628,32.634,32.64,32.646,32.652,32.658,32.664,32.67,32.676,32.682,32.688,32.694,32.7,32.706,32.712,32.718,32.724,32.73,32.736,32.742,32.748,32.754,32.76,32.766,32.772,32.778,32.784,32.79,32.796,32.802,32.808,32.814,32.82,32.826,32.832,32.838,32.844,32.85,32.856,32.862,32.868,32.874,32.88,32.886,32.892,32.898,32.904,32.91,32.916,32.922,32.928,32.934,32.94,32.946,32.952,32.958,32.964,32.97,32.976,32.982,32.988,32.994,33,33.006,33.012,33.018,33.024,33.03,33.036,33.042,33.048,33.054,33.06,33.066,33.072,33.078,33.084,33.09,33.096,33.102,33.108,33.114,33.12,33.126,33.132,33.138,33.144,33.15,33.156,33.162,33.168,33.174,33.18,33.186,33.192,33.198,33.204,33.21,33.216,33.222,33.228,33.234,33.24,33.246,33.252,33.258,33.264,33.27,33.276,33.282,33.288,33.294,33.3,33.306,33.312,33.318,33.324,33.33,33.336,33.342,33.348,33.354,33.36,33.366,33.372,33.378,33.384,33.39,33.396,33.402,33.408,33.414,33.42,33.426,33.432,33.438,33.444,33.45,33.456,33.462,33.468,33.474,33.48,33.486,33.492,33.498,33.504,33.51,33.516,33.522,33.528,33.534,33.54,33.546,33.552,33.558,33.564,33.57,33.576,33.582,33.588,33.594,33.6,33.606,33.612,33.618,33.624,33.63,33.636,33.642,33.648,33.654,33.66,33.666,33.672,33.678,33.684,33.69,33.696,33.702,33.708,33.714,33.72,33.726,33.732,33.738,33.744,33.75,33.756,33.762,33.768,33.774,33.78,33.786,33.792,33.798,33.804,33.81,33.816,33.822,33.828,33.834,33.84,33.846,33.852,33.858,33.864,33.87,33.876,33.882,33.888,33.894,33.9,33.906,33.912,33.918,33.924,33.93,33.936,33.942,33.948,33.954,33.96,33.966,33.972,33.978,33.984,33.99,33.996,34.002,34.008,34.014,34.02,34.026,34.032,34.038,34.044,34.05,34.056,34.062,34.068,34.074,34.08,34.086,34.092,34.098,34.104,34.11,34.116,34.122,34.128,34.134,34.14,34.146,34.152,34.158,34.164,34.17,34.176,34.182,34.188,34.194,34.2,34.206,34.212,34.218,34.224,34.23,34.236,34.242,34.248,34.254,34.26,34.266,34.272,34.278,34.284,34.29,34.296,34.302,34.308,34.314,34.32,34.326,34.332,34.338,34.344,34.35,34.356,34.362,34.368,34.374,34.38,34.386,34.392,34.398,34.404,34.41,34.416,34.422,34.428,34.434,34.44,34.446,34.452,34.458,34.464,34.47,34.476,34.482,34.488,34.494,34.5,34.506,34.512,34.518,34.524,34.53,34.536,34.542,34.548,34.554,34.56,34.566,34.572,34.578,34.584,34.59,34.596,34.602,34.608,34.614,34.62,34.626,34.632,34.638,34.644,34.65,34.656,34.662,34.668,34.674,34.68,34.686,34.692,34.698,34.704,34.71,34.716,34.722,34.728,34.734,34.74,34.746,34.752,34.758,34.764,34.77,34.776,34.782,34.788,34.794,34.8,34.806,34.812,34.818,34.824,34.83,34.836,34.842,34.848,34.854,34.86,34.866,34.872,34.878,34.884,34.89,34.896,34.902,34.908,34.914,34.92,34.926,34.932,34.938,34.944,34.95,34.956,34.962,34.968,34.974,34.98,34.986,34.992,34.998,35.004,35.01,35.016,35.022,35.028,35.034,35.04,35.046,35.052,35.058,35.064,35.07,35.076,35.082,35.088,35.094,35.1,35.106,35.112,35.118,35.124,35.13,35.136,35.142,35.148,35.154,35.16,35.166,35.172,35.178,35.184,35.19,35.196,35.202,35.208,35.214,35.22,35.226,35.232,35.238,35.244,35.25,35.256,35.262,35.268,35.274,35.28,35.286,35.292,35.298,35.304,35.31,35.316,35.322,35.328,35.334,35.34,35.346,35.352,35.358,35.364,35.37,35.376,35.382,35.388,35.394,35.4,35.406,35.412,35.418,35.424,35.43,35.436,35.442,35.448,35.454,35.46,35.466,35.472,35.478,35.484,35.49,35.496,35.502,35.508,35.514,35.52,35.526,35.532,35.538,35.544,35.55,35.556,35.562,35.568,35.574,35.58,35.586,35.592,35.598,35.604,35.61,35.616,35.622,35.628,35.634,35.64,35.646,35.652,35.658,35.664,35.67,35.676,35.682,35.688,35.694,35.7,35.706,35.712,35.718,35.724,35.73,35.736,35.742,35.748,35.754,35.76,35.766,35.772,35.778,35.784,35.79,35.796,35.802,35.808,35.814,35.82,35.826,35.832,35.838,35.844,35.85,35.856,35.862,35.868,35.874,35.88,35.886,35.892,35.898,35.904,35.91,35.916,35.922,35.928,35.934,35.94,35.946,35.952,35.958,35.964,35.97,35.976,35.982,35.988,35.994,36,36.006,36.012,36.018,36.024,36.03,36.036,36.042,36.048,36.054,36.06,36.066,36.072,36.078,36.084,36.09,36.096,36.102,36.108,36.114,36.12,36.126,36.132,36.138,36.144,36.15,36.156,36.162,36.168,36.174,36.18,36.186,36.192,36.198,36.204,36.21,36.216,36.222,36.228,36.234,36.24,36.246,36.252,36.258,36.264,36.27,36.276,36.282,36.288,36.294,36.3,36.306,36.312,36.318,36.324,36.33,36.336,36.342,36.348,36.354,36.36,36.366,36.372,36.378,36.384,36.39,36.396,36.402,36.408,36.414,36.42,36.426,36.432,36.438,36.444,36.45,36.456,36.462,36.468,36.474,36.48,36.486,36.492,36.498,36.504,36.51,36.516,36.522,36.528,36.534,36.54,36.546,36.552,36.558,36.564,36.57,36.576,36.582,36.588,36.594,36.6,36.606,36.612,36.618,36.624,36.63,36.636,36.642,36.648,36.654,36.66,36.666,36.672,36.678,36.684,36.69,36.696,36.702,36.708,36.714,36.72,36.726,36.732,36.738,36.744,36.75,36.756,36.762,36.768,36.774,36.78,36.786,36.792,36.798,36.804,36.81,36.816,36.822,36.828,36.834,36.84,36.846,36.852,36.858,36.864,36.87,36.876,36.882,36.888,36.894,36.9,36.906,36.912,36.918,36.924,36.93,36.936,36.942,36.948,36.954,36.96,36.966,36.972,36.978,36.984,36.99,36.996,37.002,37.008,37.014,37.02,37.026,37.032,37.038,37.044,37.05,37.056,37.062,37.068,37.074,37.08,37.086,37.092,37.098,37.104,37.11,37.116,37.122,37.128,37.134,37.14,37.146,37.152,37.158,37.164,37.17,37.176,37.182,37.188,37.194,37.2,37.206,37.212,37.218,37.224,37.23,37.236,37.242,37.248,37.254,37.26,37.266,37.272,37.278,37.284,37.29,37.296,37.302,37.308,37.314,37.32,37.326,37.332,37.338,37.344,37.35,37.356,37.362,37.368,37.374,37.38,37.386,37.392,37.398,37.404,37.41,37.416,37.422,37.428,37.434,37.44,37.446,37.452,37.458,37.464,37.47,37.476,37.482,37.488,37.494,37.5,37.506,37.512,37.518,37.524,37.53,37.536,37.542,37.548,37.554,37.56,37.566,37.572,37.578,37.584,37.59,37.596,37.602,37.608,37.614,37.62,37.626,37.632,37.638,37.644,37.65,37.656,37.662,37.668,37.674,37.68,37.686,37.692,37.698,37.704,37.71,37.716,37.722,37.728,37.734,37.74,37.746,37.752,37.758,37.764,37.77,37.776,37.782,37.788,37.794,37.8,37.806,37.812,37.818,37.824,37.83,37.836,37.842,37.848,37.854,37.86,37.866,37.872,37.878,37.884,37.89,37.896,37.902,37.908,37.914,37.92,37.926,37.932,37.938,37.944,37.95,37.956,37.962,37.968,37.974,37.98,37.986,37.992,37.998,38.004,38.01,38.016,38.022,38.028,38.034,38.04,38.046,38.052,38.058,38.064,38.07,38.076,38.082,38.088,38.094,38.1,38.106,38.112,38.118,38.124,38.13,38.136,38.142,38.148,38.154,38.16,38.166,38.172,38.178,38.184,38.19,38.196,38.202,38.208,38.214,38.22,38.226,38.232,38.238,38.244,38.25,38.256,38.262,38.268,38.274,38.28,38.286,38.292,38.298,38.304,38.31,38.316,38.322,38.328,38.334,38.34,38.346,38.352,38.358,38.364,38.37,38.376,38.382,38.388,38.394,38.4,38.406,38.412,38.418,38.424,38.43,38.436,38.442,38.448,38.454,38.46,38.466,38.472,38.478,38.484,38.49,38.496,38.502,38.508,38.514,38.52,38.526,38.532,38.538,38.544,38.55,38.556,38.562,38.568,38.574,38.58,38.586,38.592,38.598,38.604,38.61,38.616,38.622,38.628,38.634,38.64,38.646,38.652,38.658,38.664,38.67,38.676,38.682,38.688,38.694,38.7,38.706,38.712,38.718,38.724,38.73,38.736,38.742,38.748,38.754,38.76,38.766,38.772,38.778,38.784,38.79,38.796,38.802,38.808,38.814,38.82,38.826,38.832,38.838,38.844,38.85,38.856,38.862,38.868,38.874,38.88,38.886,38.892,38.898,38.904,38.91,38.916,38.922,38.928,38.934,38.94,38.946,38.952,38.958,38.964,38.97,38.976,38.982,38.988,38.994,39,39.006,39.012,39.018,39.024,39.03,39.036,39.042,39.048,39.054,39.06,39.066,39.072,39.078,39.084,39.09,39.096,39.102,39.108,39.114,39.12,39.126,39.132,39.138,39.144,39.15,39.156,39.162,39.168,39.174,39.18,39.186,39.192,39.198,39.204,39.21,39.216,39.222,39.228,39.234,39.24,39.246,39.252,39.258,39.264,39.27,39.276,39.282,39.288,39.294,39.3,39.306,39.312,39.318,39.324,39.33,39.336,39.342,39.348,39.354,39.36,39.366,39.372,39.378,39.384,39.39,39.396,39.402,39.408,39.414,39.42,39.426,39.432,39.438,39.444,39.45,39.456,39.462,39.468,39.474,39.48,39.486,39.492,39.498,39.504,39.51,39.516,39.522,39.528,39.534,39.54,39.546,39.552,39.558,39.564,39.57,39.576,39.582,39.588,39.594,39.6,39.606,39.612,39.618,39.624,39.63,39.636,39.642,39.648,39.654,39.66,39.666,39.672,39.678,39.684,39.69,39.696,39.702,39.708,39.714,39.72,39.726,39.732,39.738,39.744,39.75,39.756,39.762,39.768,39.774,39.78,39.786,39.792,39.798,39.804,39.81,39.816,39.822,39.828,39.834,39.84,39.846,39.852,39.858,39.864,39.87,39.876,39.882,39.888,39.894,39.9,39.906,39.912,39.918,39.924,39.93,39.936,39.942,39.948,39.954,39.96,39.966,39.972,39.978,39.984,39.99,39.996,40.002,40.008,40.014,40.02,40.026,40.032,40.038,40.044,40.05,40.056,40.062,40.068,40.074,40.08,40.086,40.092,40.098,40.104,40.11,40.116,40.122,40.128,40.134,40.14,40.146,40.152,40.158,40.164,40.17,40.176,40.182,40.188,40.194,40.2,40.206,40.212,40.218,40.224,40.23,40.236,40.242,40.248,40.254,40.26,40.266,40.272,40.278,40.284,40.29,40.296,40.302,40.308,40.314,40.32,40.326,40.332,40.338,40.344,40.35,40.356,40.362,40.368,40.374,40.38,40.386,40.392,40.398,40.404,40.41,40.416,40.422,40.428,40.434,40.44,40.446,40.452,40.458,40.464,40.47,40.476,40.482,40.488,40.494,40.5,40.506,40.512,40.518,40.524,40.53,40.536,40.542,40.548,40.554,40.56,40.566,40.572,40.578,40.584,40.59,40.596,40.602,40.608,40.614,40.62,40.626,40.632,40.638,40.644,40.65,40.656,40.662,40.668,40.674,40.68,40.686,40.692,40.698,40.704,40.71,40.716,40.722,40.728,40.734,40.74,40.746,40.752,40.758,40.764,40.77,40.776,40.782,40.788,40.794,40.8,40.806,40.812,40.818,40.824,40.83,40.836,40.842,40.848,40.854,40.86,40.866,40.872,40.878,40.884,40.89,40.896,40.902,40.908,40.914,40.92,40.926,40.932,40.938,40.944,40.95,40.956,40.962,40.968,40.974,40.98,40.986,40.992,40.998,41.004,41.01,41.016,41.022,41.028,41.034,41.04,41.046,41.052,41.058,41.064,41.07,41.076,41.082,41.088,41.094,41.1,41.106,41.112,41.118,41.124,41.13,41.136,41.142,41.148,41.154,41.16,41.166,41.172,41.178,41.184,41.19,41.196,41.202,41.208,41.214,41.22,41.226,41.232,41.238,41.244,41.25,41.256,41.262,41.268,41.274,41.28,41.286,41.292,41.298,41.304,41.31,41.316,41.322,41.328,41.334,41.34,41.346,41.352,41.358,41.364,41.37,41.376,41.382,41.388,41.394,41.4,41.406,41.412,41.418,41.424,41.43,41.436,41.442,41.448,41.454,41.46,41.466,41.472,41.478,41.484,41.49,41.496,41.502,41.508,41.514,41.52,41.526,41.532,41.538,41.544,41.55,41.556,41.562,41.568,41.574,41.58,41.586,41.592,41.598,41.604,41.61,41.616,41.622,41.628,41.634,41.64,41.646,41.652,41.658,41.664,41.67,41.676,41.682,41.688,41.694,41.7,41.706,41.712,41.718,41.724,41.73,41.736,41.742,41.748,41.754,41.76,41.766,41.772,41.778,41.784,41.79,41.796,41.802,41.808,41.814,41.82,41.826,41.832,41.838,41.844,41.85,41.856,41.862,41.868,41.874,41.88,41.886,41.892,41.898,41.904,41.91,41.916,41.922,41.928,41.934,41.94,41.946,41.952,41.958,41.964,41.97,41.976,41.982,41.988,41.994,42,42.006,42.012,42.018,42.024,42.03,42.036,42.042,42.048,42.054,42.06,42.066,42.072,42.078,42.084,42.09,42.096,42.102,42.108,42.114,42.12,42.126,42.132,42.138,42.144,42.15,42.156,42.162,42.168,42.174,42.18,42.186,42.192,42.198,42.204,42.21,42.216,42.222,42.228,42.234,42.24,42.246,42.252,42.258,42.264,42.27,42.276,42.282,42.288,42.294,42.3,42.306,42.312,42.318,42.324,42.33,42.336,42.342,42.348,42.354,42.36,42.366,42.372,42.378,42.384,42.39,42.396,42.402,42.408,42.414,42.42,42.426,42.432,42.438,42.444,42.45,42.456,42.462,42.468,42.474,42.48,42.486,42.492,42.498,42.504,42.51,42.516,42.522,42.528,42.534,42.54,42.546,42.552,42.558,42.564,42.57,42.576,42.582,42.588,42.594,42.6,42.606,42.612,42.618,42.624,42.63,42.636,42.642,42.648,42.654,42.66,42.666,42.672,42.678,42.684,42.69,42.696,42.702,42.708,42.714,42.72,42.726,42.732,42.738,42.744,42.75,42.756,42.762,42.768,42.774,42.78,42.786,42.792,42.798,42.804,42.81,42.816,42.822,42.828,42.834,42.84,42.846,42.852,42.858,42.864,42.87,42.876,42.882,42.888,42.894,42.9,42.906,42.912,42.918,42.924,42.93,42.936,42.942,42.948,42.954,42.96,42.966,42.972,42.978,42.984,42.99,42.996,43.002,43.008,43.014,43.02,43.026,43.032,43.038,43.044,43.05,43.056,43.062,43.068,43.074,43.08,43.086,43.092,43.098,43.104,43.11,43.116,43.122,43.128,43.134,43.14,43.146,43.152,43.158,43.164,43.17,43.176,43.182,43.188,43.194,43.2,43.206,43.212,43.218,43.224,43.23,43.236,43.242,43.248,43.254,43.26,43.266,43.272,43.278,43.284,43.29,43.296,43.302,43.308,43.314,43.32,43.326,43.332,43.338,43.344,43.35,43.356,43.362,43.368,43.374,43.38,43.386,43.392,43.398,43.404,43.41,43.416,43.422,43.428,43.434,43.44,43.446,43.452,43.458,43.464,43.47,43.476,43.482,43.488,43.494,43.5,43.506,43.512,43.518,43.524,43.53,43.536,43.542,43.548,43.554,43.56,43.566,43.572,43.578,43.584,43.59,43.596,43.602,43.608,43.614,43.62,43.626,43.632,43.638,43.644,43.65,43.656,43.662,43.668,43.674,43.68,43.686,43.692,43.698,43.704,43.71,43.716,43.722,43.728,43.734,43.74,43.746,43.752,43.758,43.764,43.77,43.776,43.782,43.788,43.794,43.8,43.806,43.812,43.818,43.824,43.83,43.836,43.842,43.848,43.854,43.86,43.866,43.872,43.878,43.884,43.89,43.896,43.902,43.908,43.914,43.92,43.926,43.932,43.938,43.944,43.95,43.956,43.962,43.968,43.974,43.98,43.986,43.992,43.998,44.004,44.01,44.016,44.022,44.028,44.034,44.04,44.046,44.052,44.058,44.064,44.07,44.076,44.082,44.088,44.094,44.1,44.106,44.112,44.118,44.124,44.13,44.136,44.142,44.148,44.154,44.16,44.166,44.172,44.178,44.184,44.19,44.196,44.202,44.208,44.214,44.22,44.226,44.232,44.238,44.244,44.25,44.256,44.262,44.268,44.274,44.28,44.286,44.292,44.298,44.304,44.31,44.316,44.322,44.328,44.334,44.34,44.346,44.352,44.358,44.364,44.37,44.376,44.382,44.388,44.394,44.4,44.406,44.412,44.418,44.424,44.43,44.436,44.442,44.448,44.454,44.46,44.466,44.472,44.478,44.484,44.49,44.496,44.502,44.508,44.514,44.52,44.526,44.532,44.538,44.544,44.55,44.556,44.562,44.568,44.574,44.58,44.586,44.592,44.598,44.604,44.61,44.616,44.622,44.628,44.634,44.64,44.646,44.652,44.658,44.664,44.67,44.676,44.682,44.688,44.694,44.7,44.706,44.712,44.718,44.724,44.73,44.736,44.742,44.748,44.754,44.76,44.766,44.772,44.778,44.784,44.79,44.796,44.802,44.808,44.814,44.82,44.826,44.832,44.838,44.844,44.85,44.856,44.862,44.868,44.874,44.88,44.886,44.892,44.898,44.904,44.91,44.916,44.922,44.928,44.934,44.94,44.946,44.952,44.958,44.964,44.97,44.976,44.982,44.988,44.994,45,45.006,45.012,45.018,45.024,45.03,45.036,45.042,45.048,45.054,45.06,45.066,45.072,45.078,45.084,45.09,45.096,45.102,45.108,45.114,45.12,45.126,45.132,45.138,45.144,45.15,45.156,45.162,45.168,45.174,45.18,45.186,45.192,45.198,45.204,45.21,45.216,45.222,45.228,45.234,45.24,45.246,45.252,45.258,45.264,45.27,45.276,45.282,45.288,45.294,45.3,45.306,45.312,45.318,45.324,45.33,45.336,45.342,45.348,45.354,45.36,45.366,45.372,45.378,45.384,45.39,45.396,45.402,45.408,45.414,45.42,45.426,45.432,45.438,45.444,45.45,45.456,45.462,45.468,45.474,45.48,45.486,45.492,45.498,45.504,45.51,45.516,45.522,45.528,45.534,45.54,45.546,45.552,45.558,45.564,45.57,45.576,45.582,45.588,45.594,45.6,45.606,45.612,45.618,45.624,45.63,45.636,45.642,45.648,45.654,45.66,45.666,45.672,45.678,45.684,45.69,45.696,45.702,45.708,45.714,45.72,45.726,45.732,45.738,45.744,45.75,45.756,45.762,45.768,45.774,45.78,45.786,45.792,45.798,45.804,45.81,45.816,45.822,45.828,45.834,45.84,45.846,45.852,45.858,45.864,45.87,45.876,45.882,45.888,45.894,45.9,45.906,45.912,45.918,45.924,45.93,45.936,45.942,45.948,45.954,45.96,45.966,45.972,45.978,45.984,45.99,45.996,46.002,46.008,46.014,46.02,46.026,46.032,46.038,46.044,46.05,46.056,46.062,46.068,46.074,46.08,46.086,46.092,46.098,46.104,46.11,46.116,46.122,46.128,46.134,46.14,46.146,46.152,46.158,46.164,46.17,46.176,46.182,46.188,46.194,46.2,46.206,46.212,46.218,46.224,46.23,46.236,46.242,46.248,46.254,46.26,46.266,46.272,46.278,46.284,46.29,46.296,46.302,46.308,46.314,46.32,46.326,46.332,46.338,46.344,46.35,46.356,46.362,46.368,46.374,46.38,46.386,46.392,46.398,46.404,46.41,46.416,46.422,46.428,46.434,46.44,46.446,46.452,46.458,46.464,46.47,46.476,46.482,46.488,46.494,46.5,46.506,46.512,46.518,46.524,46.53,46.536,46.542,46.548,46.554,46.56,46.566,46.572,46.578,46.584,46.59,46.596,46.602,46.608,46.614,46.62,46.626,46.632,46.638,46.644,46.65,46.656,46.662,46.668,46.674,46.68,46.686,46.692,46.698,46.704,46.71,46.716,46.722,46.728,46.734,46.74,46.746,46.752,46.758,46.764,46.77,46.776,46.782,46.788,46.794,46.8,46.806,46.812,46.818,46.824,46.83,46.836,46.842,46.848,46.854,46.86,46.866,46.872,46.878,46.884,46.89,46.896,46.902,46.908,46.914,46.92,46.926,46.932,46.938,46.944,46.95,46.956,46.962,46.968,46.974,46.98,46.986,46.992,46.998,47.004,47.01,47.016,47.022,47.028,47.034,47.04,47.046,47.052,47.058,47.064,47.07,47.076,47.082,47.088,47.094,47.1,47.106,47.112,47.118,47.124,47.13,47.136,47.142,47.148,47.154,47.16,47.166,47.172,47.178,47.184,47.19,47.196,47.202,47.208,47.214,47.22,47.226,47.232,47.238,47.244,47.25,47.256,47.262,47.268,47.274,47.28,47.286,47.292,47.298,47.304,47.31,47.316,47.322,47.328,47.334,47.34,47.346,47.352,47.358,47.364,47.37,47.376,47.382,47.388,47.394,47.4,47.406,47.412,47.418,47.424,47.43,47.436,47.442,47.448,47.454,47.46,47.466,47.472,47.478,47.484,47.49,47.496,47.502,47.508,47.514,47.52,47.526,47.532,47.538,47.544,47.55,47.556,47.562,47.568,47.574,47.58,47.586,47.592,47.598,47.604,47.61,47.616,47.622,47.628,47.634,47.64,47.646,47.652,47.658,47.664,47.67,47.676,47.682,47.688,47.694,47.7,47.706,47.712,47.718,47.724,47.73,47.736,47.742,47.748,47.754,47.76,47.766,47.772,47.778,47.784,47.79,47.796,47.802,47.808,47.814,47.82,47.826,47.832,47.838,47.844,47.85,47.856,47.862,47.868,47.874,47.88,47.886,47.892,47.898,47.904,47.91,47.916,47.922,47.928,47.934,47.94,47.946,47.952,47.958,47.964,47.97,47.976,47.982,47.988,47.994,48,48.006,48.012,48.018,48.024,48.03,48.036,48.042,48.048,48.054,48.06,48.066,48.072,48.078,48.084,48.09,48.096,48.102,48.108,48.114,48.12,48.126,48.132,48.138,48.144,48.15,48.156,48.162,48.168,48.174,48.18,48.186,48.192,48.198,48.204,48.21,48.216,48.222,48.228,48.234,48.24,48.246,48.252,48.258,48.264,48.27,48.276,48.282,48.288,48.294,48.3,48.306,48.312,48.318,48.324,48.33,48.336,48.342,48.348,48.354,48.36,48.366,48.372,48.378,48.384,48.39,48.396,48.402,48.408,48.414,48.42,48.426,48.432,48.438,48.444,48.45,48.456,48.462,48.468,48.474,48.48,48.486,48.492,48.498,48.504,48.51,48.516,48.522,48.528,48.534,48.54,48.546,48.552,48.558,48.564,48.57,48.576,48.582,48.588,48.594,48.6,48.606,48.612,48.618,48.624,48.63,48.636,48.642,48.648,48.654,48.66,48.666,48.672,48.678,48.684,48.69,48.696,48.702,48.708,48.714,48.72,48.726,48.732,48.738,48.744,48.75,48.756,48.762,48.768,48.774,48.78,48.786,48.792,48.798,48.804,48.81,48.816,48.822,48.828,48.834,48.84,48.846,48.852,48.858,48.864,48.87,48.876,48.882,48.888,48.894,48.9,48.906,48.912,48.918,48.924,48.93,48.936,48.942,48.948,48.954,48.96,48.966,48.972,48.978,48.984,48.99,48.996,49.002,49.008,49.014,49.02,49.026,49.032,49.038,49.044,49.05,49.056,49.062,49.068,49.074,49.08,49.086,49.092,49.098,49.104,49.11,49.116,49.122,49.128,49.134,49.14,49.146,49.152,49.158,49.164,49.17,49.176,49.182,49.188,49.194,49.2,49.206,49.212,49.218,49.224,49.23,49.236,49.242,49.248,49.254,49.26,49.266,49.272,49.278,49.284,49.29,49.296,49.302,49.308,49.314,49.32,49.326,49.332,49.338,49.344,49.35,49.356,49.362,49.368,49.374,49.38,49.386,49.392,49.398,49.404,49.41,49.416,49.422,49.428,49.434,49.44,49.446,49.452,49.458,49.464,49.47,49.476,49.482,49.488,49.494,49.5,49.506,49.512,49.518,49.524,49.53,49.536,49.542,49.548,49.554,49.56,49.566,49.572,49.578,49.584,49.59,49.596,49.602,49.608,49.614,49.62,49.626,49.632,49.638,49.644,49.65,49.656,49.662,49.668,49.674,49.68,49.686,49.692,49.698,49.704,49.71,49.716,49.722,49.728,49.734,49.74,49.746,49.752,49.758,49.764,49.77,49.776,49.782,49.788,49.794,49.8,49.806,49.812,49.818,49.824,49.83,49.836,49.842,49.848,49.854,49.86,49.866,49.872,49.878,49.884,49.89,49.896,49.902,49.908,49.914,49.92,49.926,49.932,49.938,49.944,49.95,49.956,49.962,49.968,49.974,49.98,49.986,49.992,49.998,50.004,50.01,50.016,50.022,50.028,50.034,50.04,50.046,50.052,50.058,50.064,50.07,50.076,50.082,50.088,50.094,50.1,50.106,50.112,50.118,50.124,50.13,50.136,50.142,50.148,50.154,50.16,50.166,50.172,50.178,50.184,50.19,50.196,50.202,50.208,50.214,50.22,50.226,50.232,50.238,50.244,50.25,50.256,50.262,50.268,50.274,50.28,50.286,50.292,50.298,50.304,50.31,50.316,50.322,50.328,50.334,50.34,50.346,50.352,50.358,50.364,50.37,50.376,50.382,50.388,50.394,50.4,50.406,50.412,50.418,50.424,50.43,50.436,50.442,50.448,50.454,50.46,50.466,50.472,50.478,50.484,50.49,50.496,50.502,50.508,50.514,50.52,50.526,50.532,50.538,50.544,50.55,50.556,50.562,50.568,50.574,50.58,50.586,50.592,50.598,50.604,50.61,50.616,50.622,50.628,50.634,50.64,50.646,50.652,50.658,50.664,50.67,50.676,50.682,50.688,50.694,50.7,50.706,50.712,50.718,50.724,50.73,50.736,50.742,50.748,50.754,50.76,50.766,50.772,50.778,50.784,50.79,50.796,50.802,50.808,50.814,50.82,50.826,50.832,50.838,50.844,50.85,50.856,50.862,50.868,50.874,50.88,50.886,50.892,50.898,50.904,50.91,50.916,50.922,50.928,50.934,50.94,50.946,50.952,50.958,50.964,50.97,50.976,50.982,50.988,50.994,51,51.006,51.012,51.018,51.024,51.03,51.036,51.042,51.048,51.054,51.06,51.066,51.072,51.078,51.084,51.09,51.096,51.102,51.108,51.114,51.12,51.126,51.132,51.138,51.144,51.15,51.156,51.162,51.168,51.174,51.18,51.186,51.192,51.198,51.204,51.21,51.216,51.222,51.228,51.234,51.24,51.246,51.252,51.258,51.264,51.27,51.276,51.282,51.288,51.294,51.3,51.306,51.312,51.318,51.324,51.33,51.336,51.342,51.348,51.354,51.36,51.366,51.372,51.378,51.384,51.39,51.396,51.402,51.408,51.414,51.42,51.426,51.432,51.438,51.444,51.45,51.456,51.462,51.468,51.474,51.48,51.486,51.492,51.498,51.504,51.51,51.516,51.522,51.528,51.534,51.54,51.546,51.552,51.558,51.564,51.57,51.576,51.582,51.588,51.594,51.6,51.606,51.612,51.618,51.624,51.63,51.636,51.642,51.648,51.654,51.66,51.666,51.672,51.678,51.684,51.69,51.696,51.702,51.708,51.714,51.72,51.726,51.732,51.738,51.744,51.75,51.756,51.762,51.768,51.774,51.78,51.786,51.792,51.798,51.804,51.81,51.816,51.822,51.828,51.834,51.84,51.846,51.852,51.858,51.864,51.87,51.876,51.882,51.888,51.894,51.9,51.906,51.912,51.918,51.924,51.93,51.936,51.942,51.948,51.954,51.96,51.966,51.972,51.978,51.984,51.99,51.996,52.002,52.008,52.014,52.02,52.026,52.032,52.038,52.044,52.05,52.056,52.062,52.068,52.074,52.08,52.086,52.092,52.098,52.104,52.11,52.116,52.122,52.128,52.134,52.14,52.146,52.152,52.158,52.164,52.17,52.176,52.182,52.188,52.194,52.2,52.206,52.212,52.218,52.224,52.23,52.236,52.242,52.248,52.254,52.26,52.266,52.272,52.278,52.284,52.29,52.296,52.302,52.308,52.314,52.32,52.326,52.332,52.338,52.344,52.35,52.356,52.362,52.368,52.374,52.38,52.386,52.392,52.398,52.404,52.41,52.416,52.422,52.428,52.434,52.44,52.446,52.452,52.458,52.464,52.47,52.476,52.482,52.488,52.494,52.5,52.506,52.512,52.518,52.524,52.53,52.536,52.542,52.548,52.554,52.56,52.566,52.572,52.578,52.584,52.59,52.596,52.602,52.608,52.614,52.62,52.626,52.632,52.638,52.644,52.65,52.656,52.662,52.668,52.674,52.68,52.686,52.692,52.698,52.704,52.71,52.716,52.722,52.728,52.734,52.74,52.746,52.752,52.758,52.764,52.77,52.776,52.782,52.788,52.794,52.8,52.806,52.812,52.818,52.824,52.83,52.836,52.842,52.848,52.854,52.86,52.866,52.872,52.878,52.884,52.89,52.896,52.902,52.908,52.914,52.92,52.926,52.932,52.938,52.944,52.95,52.956,52.962,52.968,52.974,52.98,52.986,52.992,52.998,53.004,53.01,53.016,53.022,53.028,53.034,53.04,53.046,53.052,53.058,53.064,53.07,53.076,53.082,53.088,53.094,53.1,53.106,53.112,53.118,53.124,53.13,53.136,53.142,53.148,53.154,53.16,53.166,53.172,53.178,53.184,53.19,53.196,53.202,53.208,53.214,53.22,53.226,53.232,53.238,53.244,53.25,53.256,53.262,53.268,53.274,53.28,53.286,53.292,53.298,53.304,53.31,53.316,53.322,53.328,53.334,53.34,53.346,53.352,53.358,53.364,53.37,53.376,53.382,53.388,53.394,53.4,53.406,53.412,53.418,53.424,53.43,53.436,53.442,53.448,53.454,53.46,53.466,53.472,53.478,53.484,53.49,53.496,53.502,53.508,53.514,53.52,53.526,53.532,53.538,53.544,53.55,53.556,53.562,53.568,53.574,53.58,53.586,53.592,53.598,53.604,53.61,53.616,53.622,53.628,53.634,53.64,53.646,53.652,53.658,53.664,53.67,53.676,53.682,53.688,53.694,53.7,53.706,53.712,53.718,53.724,53.73,53.736,53.742,53.748,53.754,53.76,53.766,53.772,53.778,53.784,53.79,53.796,53.802,53.808,53.814,53.82,53.826,53.832,53.838,53.844,53.85,53.856,53.862,53.868,53.874,53.88,53.886,53.892,53.898,53.904,53.91,53.916,53.922,53.928,53.934,53.94,53.946,53.952,53.958,53.964,53.97,53.976,53.982,53.988,53.994,54,54.006,54.012,54.018,54.024,54.03,54.036,54.042,54.048,54.054,54.06,54.066,54.072,54.078,54.084,54.09,54.096,54.102,54.108,54.114,54.12,54.126,54.132,54.138,54.144,54.15,54.156,54.162,54.168,54.174,54.18,54.186,54.192,54.198,54.204,54.21,54.216,54.222,54.228,54.234,54.24,54.246,54.252,54.258,54.264,54.27,54.276,54.282,54.288,54.294,54.3,54.306,54.312,54.318,54.324,54.33,54.336,54.342,54.348,54.354,54.36,54.366,54.372,54.378,54.384,54.39,54.396,54.402,54.408,54.414,54.42,54.426,54.432,54.438,54.444,54.45,54.456,54.462,54.468,54.474,54.48,54.486,54.492,54.498,54.504,54.51,54.516,54.522,54.528,54.534,54.54,54.546,54.552,54.558,54.564,54.57,54.576,54.582,54.588,54.594,54.6,54.606,54.612,54.618,54.624,54.63,54.636,54.642,54.648,54.654,54.66,54.666,54.672,54.678,54.684,54.69,54.696,54.702,54.708,54.714,54.72,54.726,54.732,54.738,54.744,54.75,54.756,54.762,54.768,54.774,54.78,54.786,54.792,54.798,54.804,54.81,54.816,54.822,54.828,54.834,54.84,54.846,54.852,54.858,54.864,54.87,54.876,54.882,54.888,54.894,54.9,54.906,54.912,54.918,54.924,54.93,54.936,54.942,54.948,54.954,54.96,54.966,54.972,54.978,54.984,54.99,54.996,55.002,55.008,55.014,55.02,55.026,55.032,55.038,55.044,55.05,55.056,55.062,55.068,55.074,55.08,55.086,55.092,55.098,55.104,55.11,55.116,55.122,55.128,55.134,55.14,55.146,55.152,55.158,55.164,55.17,55.176,55.182,55.188,55.194,55.2,55.206,55.212,55.218,55.224,55.23,55.236,55.242,55.248,55.254,55.26,55.266,55.272,55.278,55.284,55.29,55.296,55.302,55.308,55.314,55.32,55.326,55.332,55.338,55.344,55.35,55.356,55.362,55.368,55.374,55.38,55.386,55.392,55.398,55.404,55.41,55.416,55.422,55.428,55.434,55.44,55.446,55.452,55.458,55.464,55.47,55.476,55.482,55.488,55.494,55.5,55.506,55.512,55.518,55.524,55.53,55.536,55.542,55.548,55.554,55.56,55.566,55.572,55.578,55.584,55.59,55.596,55.602,55.608,55.614,55.62,55.626,55.632,55.638,55.644,55.65,55.656,55.662,55.668,55.674,55.68,55.686,55.692,55.698,55.704,55.71,55.716,55.722,55.728,55.734,55.74,55.746,55.752,55.758,55.764,55.77,55.776,55.782,55.788,55.794,55.8,55.806,55.812,55.818,55.824,55.83,55.836,55.842,55.848,55.854,55.86,55.866,55.872,55.878,55.884,55.89,55.896,55.902,55.908,55.914,55.92,55.926,55.932,55.938,55.944,55.95,55.956,55.962,55.968,55.974,55.98,55.986,55.992,55.998,56.004,56.01,56.016,56.022,56.028,56.034,56.04,56.046,56.052,56.058,56.064,56.07,56.076,56.082,56.088,56.094,56.1,56.106,56.112,56.118,56.124,56.13,56.136,56.142,56.148,56.154,56.16,56.166,56.172,56.178,56.184,56.19,56.196,56.202,56.208,56.214,56.22,56.226,56.232,56.238,56.244,56.25,56.256,56.262,56.268,56.274,56.28,56.286,56.292,56.298,56.304,56.31,56.316,56.322,56.328,56.334,56.34,56.346,56.352,56.358,56.364,56.37,56.376,56.382,56.388,56.394,56.4,56.406,56.412,56.418,56.424,56.43,56.436,56.442,56.448,56.454,56.46,56.466,56.472,56.478,56.484,56.49,56.496,56.502,56.508,56.514,56.52,56.526,56.532,56.538,56.544,56.55,56.556,56.562,56.568,56.574,56.58,56.586,56.592,56.598,56.604,56.61,56.616,56.622,56.628,56.634,56.64,56.646,56.652,56.658,56.664,56.67,56.676,56.682,56.688,56.694,56.7,56.706,56.712,56.718,56.724,56.73,56.736,56.742,56.748,56.754,56.76,56.766,56.772,56.778,56.784,56.79,56.796,56.802,56.808,56.814,56.82,56.826,56.832,56.838,56.844,56.85,56.856,56.862,56.868,56.874,56.88,56.886,56.892,56.898,56.904,56.91,56.916,56.922,56.928,56.934,56.94,56.946,56.952,56.958,56.964,56.97,56.976,56.982,56.988,56.994,57,57.006,57.012,57.018,57.024,57.03,57.036,57.042,57.048,57.054,57.06,57.066,57.072,57.078,57.084,57.09,57.096,57.102,57.108,57.114,57.12,57.126,57.132,57.138,57.144,57.15,57.156,57.162,57.168,57.174,57.18,57.186,57.192,57.198,57.204,57.21,57.216,57.222,57.228,57.234,57.24,57.246,57.252,57.258,57.264,57.27,57.276,57.282,57.288,57.294,57.3,57.306,57.312,57.318,57.324,57.33,57.336,57.342,57.348,57.354,57.36,57.366,57.372,57.378,57.384,57.39,57.396,57.402,57.408,57.414,57.42,57.426,57.432,57.438,57.444,57.45,57.456,57.462,57.468,57.474,57.48,57.486,57.492,57.498,57.504,57.51,57.516,57.522,57.528,57.534,57.54,57.546,57.552,57.558,57.564,57.57,57.576,57.582,57.588,57.594,57.6,57.606,57.612,57.618,57.624,57.63,57.636,57.642,57.648,57.654,57.66,57.666,57.672,57.678,57.684,57.69,57.696,57.702,57.708,57.714,57.72,57.726,57.732,57.738,57.744,57.75,57.756,57.762,57.768,57.774,57.78,57.786,57.792,57.798,57.804,57.81,57.816,57.822,57.828,57.834,57.84,57.846,57.852,57.858,57.864,57.87,57.876,57.882,57.888,57.894,57.9,57.906,57.912,57.918,57.924,57.93,57.936,57.942,57.948,57.954,57.96,57.966,57.972,57.978,57.984,57.99,57.996,58.002,58.008,58.014,58.02,58.026,58.032,58.038,58.044,58.05,58.056,58.062,58.068,58.074,58.08,58.086,58.092,58.098,58.104,58.11,58.116,58.122,58.128,58.134,58.14,58.146,58.152,58.158,58.164,58.17,58.176,58.182,58.188,58.194,58.2,58.206,58.212,58.218,58.224,58.23,58.236,58.242,58.248,58.254,58.26,58.266,58.272,58.278,58.284,58.29,58.296,58.302,58.308,58.314,58.32,58.326,58.332,58.338,58.344,58.35,58.356,58.362,58.368,58.374,58.38,58.386,58.392,58.398,58.404,58.41,58.416,58.422,58.428,58.434,58.44,58.446,58.452,58.458,58.464,58.47,58.476,58.482,58.488,58.494,58.5,58.506,58.512,58.518,58.524,58.53,58.536,58.542,58.548,58.554,58.56,58.566,58.572,58.578,58.584,58.59,58.596,58.602,58.608,58.614,58.62,58.626,58.632,58.638,58.644,58.65,58.656,58.662,58.668,58.674,58.68,58.686,58.692,58.698,58.704,58.71,58.716,58.722,58.728,58.734,58.74,58.746,58.752,58.758,58.764,58.77,58.776,58.782,58.788,58.794,58.8,58.806,58.812,58.818,58.824,58.83,58.836,58.842,58.848,58.854,58.86,58.866,58.872,58.878,58.884,58.89,58.896,58.902,58.908,58.914,58.92,58.926,58.932,58.938,58.944,58.95,58.956,58.962,58.968,58.974,58.98,58.986,58.992,58.998,59.004,59.01,59.016,59.022,59.028,59.034,59.04,59.046,59.052,59.058,59.064,59.07,59.076,59.082,59.088,59.094,59.1,59.106,59.112,59.118,59.124,59.13,59.136,59.142,59.148,59.154,59.16,59.166,59.172,59.178,59.184,59.19,59.196,59.202,59.208,59.214,59.22,59.226,59.232,59.238,59.244,59.25,59.256,59.262,59.268,59.274,59.28,59.286,59.292,59.298,59.304,59.31,59.316,59.322,59.328,59.334,59.34,59.346,59.352,59.358,59.364,59.37,59.376,59.382,59.388,59.394,59.4,59.406,59.412,59.418,59.424,59.43,59.436,59.442,59.448,59.454,59.46,59.466,59.472,59.478,59.484,59.49,59.496,59.502,59.508,59.514,59.52,59.526,59.532,59.538,59.544,59.55,59.556,59.562,59.568,59.574,59.58,59.586,59.592,59.598,59.604,59.61,59.616,59.622,59.628,59.634,59.64,59.646,59.652,59.658,59.664,59.67,59.676,59.682,59.688,59.694,59.7,59.706,59.712,59.718,59.724,59.73,59.736,59.742,59.748,59.754,59.76,59.766,59.772,59.778,59.784,59.79,59.796,59.802,59.808,59.814,59.82,59.826,59.832,59.838,59.844,59.85,59.856,59.862,59.868,59.874,59.88,59.886,59.892,59.898,59.904,59.91,59.916,59.922,59.928,59.934,59.94,59.946,59.952,59.958,59.964,59.97,59.976,59.982,59.988,59.994,60,60.006,60.012,60.018,60.024,60.03,60.036,60.042,60.048,60.054,60.06,60.066,60.072,60.078,60.084,60.09,60.096,60.102,60.108,60.114,60.12,60.126,60.132,60.138,60.144,60.15,60.156,60.162,60.168,60.174,60.18,60.186,60.192,60.198,60.204,60.21,60.216,60.222,60.228,60.234,60.24,60.246,60.252,60.258,60.264,60.27,60.276,60.282,60.288,60.294,60.3,60.306,60.312,60.318,60.324,60.33,60.336,60.342,60.348,60.354,60.36,60.366,60.372,60.378,60.384,60.39,60.396,60.402,60.408,60.414,60.42,60.426,60.432,60.438,60.444,60.45,60.456,60.462,60.468,60.474,60.48,60.486,60.492,60.498,60.504,60.51,60.516,60.522,60.528,60.534,60.54,60.546,60.552,60.558,60.564,60.57,60.576,60.582,60.588,60.594,60.6,60.606,60.612,60.618,60.624,60.63,60.636,60.642,60.648,60.654,60.66,60.666,60.672,60.678,60.684,60.69,60.696,60.702,60.708,60.714,60.72,60.726,60.732,60.738,60.744,60.75,60.756,60.762,60.768,60.774,60.78,60.786,60.792,60.798,60.804,60.81,60.816,60.822,60.828,60.834,60.84,60.846,60.852,60.858,60.864,60.87,60.876,60.882,60.888,60.894,60.9,60.906,60.912,60.918,60.924,60.93,60.936,60.942,60.948,60.954,60.96,60.966,60.972,60.978,60.984,60.99,60.996,61.002,61.008,61.014,61.02,61.026,61.032,61.038,61.044,61.05,61.056,61.062,61.068,61.074,61.08,61.086,61.092,61.098,61.104,61.11,61.116,61.122,61.128,61.134,61.14,61.146,61.152,61.158,61.164,61.17,61.176,61.182,61.188,61.194,61.2,61.206,61.212,61.218,61.224,61.23,61.236,61.242,61.248,61.254,61.26,61.266,61.272,61.278,61.284,61.29,61.296,61.302,61.308,61.314,61.32,61.326,61.332,61.338,61.344,61.35,61.356,61.362,61.368,61.374,61.38,61.386,61.392,61.398,61.404,61.41,61.416,61.422,61.428,61.434,61.44,61.446,61.452,61.458,61.464,61.47,61.476,61.482,61.488,61.494,61.5,61.506,61.512,61.518,61.524,61.53,61.536,61.542,61.548,61.554,61.56,61.566,61.572,61.578,61.584,61.59,61.596,61.602,61.608,61.614,61.62,61.626,61.632,61.638,61.644,61.65,61.656,61.662,61.668,61.674,61.68,61.686,61.692,61.698,61.704,61.71,61.716,61.722,61.728,61.734,61.74,61.746,61.752,61.758,61.764,61.77,61.776,61.782,61.788,61.794,61.8,61.806,61.812,61.818,61.824,61.83,61.836,61.842,61.848,61.854,61.86,61.866,61.872,61.878,61.884,61.89,61.896,61.902,61.908,61.914,61.92,61.926,61.932,61.938,61.944,61.95,61.956,61.962,61.968,61.974,61.98,61.986,61.992,61.998,62.004,62.01,62.016,62.022,62.028,62.034,62.04,62.046,62.052,62.058,62.064,62.07,62.076,62.082,62.088,62.094,62.1,62.106,62.112,62.118,62.124,62.13,62.136,62.142,62.148,62.154,62.16,62.166,62.172,62.178,62.184,62.19,62.196,62.202,62.208,62.214,62.22,62.226,62.232,62.238,62.244,62.25,62.256,62.262,62.268,62.274,62.28,62.286,62.292,62.298,62.304,62.31,62.316,62.322,62.328,62.334,62.34,62.346,62.352,62.358,62.364,62.37,62.376,62.382,62.388,62.394,62.4,62.406,62.412,62.418,62.424,62.43,62.436,62.442,62.448,62.454,62.46,62.466,62.472,62.478,62.484,62.49,62.496,62.502,62.508,62.514,62.52,62.526,62.532,62.538,62.544,62.55,62.556,62.562,62.568,62.574,62.58,62.586,62.592,62.598,62.604,62.61,62.616,62.622,62.628,62.634,62.64,62.646,62.652,62.658,62.664,62.67,62.676,62.682,62.688,62.694,62.7,62.706,62.712,62.718,62.724,62.73,62.736,62.742,62.748,62.754,62.76,62.766,62.772,62.778,62.784,62.79,62.796,62.802,62.808,62.814,62.82,62.826,62.832,62.838,62.844,62.85,62.856,62.862,62.868,62.874,62.88,62.886,62.892,62.898,62.904,62.91,62.916,62.922,62.928,62.934,62.94,62.946,62.952,62.958,62.964,62.97,62.976,62.982,62.988,62.994,63,63.006,63.012,63.018,63.024,63.03,63.036,63.042,63.048,63.054,63.06,63.066,63.072,63.078,63.084,63.09,63.096,63.102,63.108,63.114,63.12,63.126,63.132,63.138,63.144,63.15,63.156,63.162,63.168,63.174,63.18,63.186,63.192,63.198,63.204,63.21,63.216,63.222,63.228,63.234,63.24,63.246,63.252,63.258,63.264,63.27,63.276,63.282,63.288,63.294,63.3,63.306,63.312,63.318,63.324,63.33,63.336,63.342,63.348,63.354,63.36,63.366,63.372,63.378,63.384,63.39,63.396,63.402,63.408,63.414,63.42,63.426,63.432,63.438,63.444,63.45,63.456,63.462,63.468,63.474,63.48,63.486,63.492,63.498,63.504,63.51,63.516,63.522,63.528,63.534,63.54,63.546,63.552,63.558,63.564,63.57,63.576,63.582,63.588,63.594,63.6,63.606,63.612,63.618,63.624,63.63,63.636,63.642,63.648,63.654,63.66,63.666,63.672,63.678,63.684,63.69,63.696,63.702,63.708,63.714,63.72,63.726,63.732,63.738,63.744,63.75,63.756,63.762,63.768,63.774,63.78,63.786,63.792,63.798,63.804,63.81,63.816,63.822,63.828,63.834,63.84,63.846,63.852,63.858,63.864,63.87,63.876,63.882,63.888,63.894,63.9,63.906,63.912,63.918,63.924,63.93,63.936,63.942,63.948,63.954,63.96,63.966,63.972,63.978,63.984,63.99,63.996,64.002,64.008,64.014,64.02,64.026,64.032,64.038,64.044,64.05,64.056,64.062,64.068,64.074,64.08,64.086,64.092,64.098,64.104,64.11,64.116,64.122,64.128,64.134,64.14,64.146,64.152,64.158,64.164,64.17,64.176,64.182,64.188,64.194,64.2,64.206,64.212,64.218,64.224,64.23,64.236,64.242,64.248,64.254,64.26,64.266,64.272,64.278,64.284,64.29,64.296,64.302,64.308,64.314,64.32,64.326,64.332,64.338,64.344,64.35,64.356,64.362,64.368,64.374,64.38,64.386,64.392,64.398,64.404,64.41,64.416,64.422,64.428,64.434,64.44,64.446,64.452,64.458,64.464,64.47,64.476,64.482,64.488,64.494,64.5,64.506,64.512,64.518,64.524,64.53,64.536,64.542,64.548,64.554,64.56,64.566,64.572,64.578,64.584,64.59,64.596,64.602,64.608,64.614,64.62,64.626,64.632,64.638,64.644,64.65,64.656,64.662,64.668,64.674,64.68,64.686,64.692,64.698,64.704,64.71,64.716,64.722,64.728,64.734,64.74,64.746,64.752,64.758,64.764,64.77,64.776,64.782,64.788,64.794,64.8,64.806,64.812,64.818,64.824,64.83,64.836,64.842,64.848,64.854,64.86,64.866,64.872,64.878,64.884,64.89,64.896,64.902,64.908,64.914,64.92,64.926,64.932,64.938,64.944,64.95,64.956,64.962,64.968,64.974,64.98,64.986,64.992,64.998,65.004,65.01,65.016,65.022,65.028,65.034,65.04,65.046,65.052,65.058,65.064,65.07,65.076,65.082,65.088,65.094,65.1,65.106,65.112,65.118,65.124,65.13,65.136,65.142,65.148,65.154,65.16,65.166,65.172,65.178,65.184,65.19,65.196,65.202,65.208,65.214,65.22,65.226,65.232,65.238,65.244,65.25,65.256,65.262,65.268,65.274,65.28,65.286,65.292,65.298,65.304,65.31,65.316,65.322,65.328,65.334,65.34,65.346,65.352,65.358,65.364,65.37,65.376,65.382,65.388,65.394,65.4,65.406,65.412,65.418,65.424,65.43,65.436,65.442,65.448,65.454,65.46,65.466,65.472,65.478,65.484,65.49,65.496,65.502,65.508,65.514,65.52,65.526,65.532,65.538,65.544,65.55,65.556,65.562,65.568,65.574,65.58,65.586,65.592,65.598,65.604,65.61,65.616,65.622,65.628,65.634,65.64,65.646,65.652,65.658,65.664,65.67,65.676,65.682,65.688,65.694,65.7,65.706,65.712,65.718,65.724,65.73,65.736,65.742,65.748,65.754,65.76,65.766,65.772,65.778,65.784,65.79,65.796,65.802,65.808,65.814,65.82,65.826,65.832,65.838,65.844,65.85,65.856,65.862,65.868,65.874,65.88,65.886,65.892,65.898,65.904,65.91,65.916,65.922,65.928,65.934,65.94,65.946,65.952,65.958,65.964,65.97,65.976,65.982,65.988,65.994,66,66.006,66.012,66.018,66.024,66.03,66.036,66.042,66.048,66.054,66.06,66.066,66.072,66.078,66.084,66.09,66.096,66.102,66.108,66.114,66.12,66.126,66.132,66.138,66.144,66.15,66.156,66.162,66.168,66.174,66.18,66.186,66.192,66.198,66.204,66.21,66.216,66.222,66.228,66.234,66.24,66.246,66.252,66.258,66.264,66.27,66.276,66.282,66.288,66.294,66.3,66.306,66.312,66.318,66.324,66.33,66.336,66.342,66.348,66.354,66.36,66.366,66.372,66.378,66.384,66.39,66.396,66.402,66.408,66.414,66.42,66.426,66.432,66.438,66.444,66.45,66.456,66.462,66.468,66.474,66.48,66.486,66.492,66.498,66.504,66.51,66.516,66.522,66.528,66.534,66.54,66.546,66.552,66.558,66.564,66.57,66.576,66.582,66.588,66.594,66.6,66.606,66.612,66.618,66.624,66.63,66.636,66.642,66.648,66.654,66.66,66.666,66.672,66.678,66.684,66.69,66.696,66.702,66.708,66.714,66.72,66.726,66.732,66.738,66.744,66.75,66.756,66.762,66.768,66.774,66.78,66.786,66.792,66.798,66.804,66.81,66.816,66.822,66.828,66.834,66.84,66.846,66.852,66.858,66.864,66.87,66.876,66.882,66.888,66.894,66.9,66.906,66.912,66.918,66.924,66.93,66.936,66.942,66.948,66.954,66.96,66.966,66.972,66.978,66.984,66.99,66.996,67.002,67.008,67.014,67.02,67.026,67.032,67.038,67.044,67.05,67.056,67.062,67.068,67.074,67.08,67.086,67.092,67.098,67.104,67.11,67.116,67.122,67.128,67.134,67.14,67.146,67.152,67.158,67.164,67.17,67.176,67.182,67.188,67.194,67.2,67.206,67.212,67.218,67.224,67.23,67.236,67.242,67.248,67.254,67.26,67.266,67.272,67.278,67.284,67.29,67.296,67.302,67.308,67.314,67.32,67.326,67.332,67.338,67.344,67.35,67.356,67.362,67.368,67.374,67.38,67.386,67.392,67.398,67.404,67.41,67.416,67.422,67.428,67.434,67.44,67.446,67.452,67.458,67.464,67.47,67.476,67.482,67.488,67.494,67.5,67.506,67.512,67.518,67.524,67.53,67.536,67.542,67.548,67.554,67.56,67.566,67.572,67.578,67.584,67.59,67.596,67.602,67.608,67.614,67.62,67.626,67.632,67.638,67.644,67.65,67.656,67.662,67.668,67.674,67.68,67.686,67.692,67.698,67.704,67.71,67.716,67.722,67.728,67.734,67.74,67.746,67.752,67.758,67.764,67.77,67.776,67.782,67.788,67.794,67.8,67.806,67.812,67.818,67.824,67.83,67.836,67.842,67.848,67.854,67.86,67.866,67.872,67.878,67.884,67.89,67.896,67.902,67.908,67.914,67.92,67.926,67.932,67.938,67.944,67.95,67.956,67.962,67.968,67.974,67.98,67.986,67.992,67.998,68.004,68.01,68.016,68.022,68.028,68.034,68.04,68.046,68.052,68.058,68.064,68.07,68.076,68.082,68.088,68.094,68.1,68.106,68.112,68.118,68.124,68.13,68.136,68.142,68.148,68.154,68.16,68.166,68.172,68.178,68.184,68.19,68.196,68.202,68.208,68.214,68.22,68.226,68.232,68.238,68.244,68.25,68.256,68.262,68.268,68.274,68.28,68.286,68.292,68.298,68.304,68.31,68.316,68.322,68.328,68.334,68.34,68.346,68.352,68.358,68.364,68.37,68.376,68.382,68.388,68.394,68.4,68.406,68.412,68.418,68.424,68.43,68.436,68.442,68.448,68.454,68.46,68.466,68.472,68.478,68.484,68.49,68.496,68.502,68.508,68.514,68.52,68.526,68.532,68.538,68.544,68.55,68.556,68.562,68.568,68.574,68.58,68.586,68.592,68.598,68.604,68.61,68.616,68.622,68.628,68.634,68.64,68.646,68.652,68.658,68.664,68.67,68.676,68.682,68.688,68.694,68.7,68.706,68.712,68.718,68.724,68.73,68.736,68.742,68.748,68.754,68.76,68.766,68.772,68.778,68.784,68.79,68.796,68.802,68.808,68.814,68.82,68.826,68.832,68.838,68.844,68.85,68.856,68.862,68.868,68.874,68.88,68.886,68.892,68.898,68.904,68.91,68.916,68.922,68.928,68.934,68.94,68.946,68.952,68.958,68.964,68.97,68.976,68.982,68.988,68.994,69,69.006,69.012,69.018,69.024,69.03,69.036,69.042,69.048,69.054,69.06,69.066,69.072,69.078,69.084,69.09,69.096,69.102,69.108,69.114,69.12,69.126,69.132,69.138,69.144,69.15,69.156,69.162,69.168,69.174,69.18,69.186,69.192,69.198,69.204,69.21,69.216,69.222,69.228,69.234,69.24,69.246,69.252,69.258,69.264,69.27,69.276,69.282,69.288,69.294,69.3,69.306,69.312,69.318,69.324,69.33,69.336,69.342,69.348,69.354,69.36,69.366,69.372,69.378,69.384,69.39,69.396,69.402,69.408,69.414,69.42,69.426,69.432,69.438,69.444,69.45,69.456,69.462,69.468,69.474,69.48,69.486,69.492,69.498,69.504,69.51,69.516,69.522,69.528,69.534,69.54,69.546,69.552,69.558,69.564,69.57,69.576,69.582,69.588,69.594,69.6,69.606,69.612,69.618,69.624,69.63,69.636,69.642,69.648,69.654,69.66,69.666,69.672,69.678,69.684,69.69,69.696,69.702,69.708,69.714,69.72,69.726,69.732,69.738,69.744,69.75,69.756,69.762,69.768,69.774,69.78,69.786,69.792,69.798,69.804,69.81,69.816,69.822,69.828,69.834,69.84,69.846,69.852,69.858,69.864,69.87,69.876,69.882,69.888,69.894,69.9,69.906,69.912,69.918,69.924,69.93,69.936,69.942,69.948,69.954,69.96,69.966,69.972,69.978,69.984,69.99,69.996,70.002,70.008,70.014,70.02,70.026,70.032,70.038,70.044,70.05,70.056,70.062,70.068,70.074,70.08,70.086,70.092,70.098,70.104,70.11,70.116,70.122,70.128,70.134,70.14,70.146,70.152,70.158,70.164,70.17,70.176,70.182,70.188,70.194,70.2,70.206,70.212,70.218,70.224,70.23,70.236,70.242,70.248,70.254,70.26,70.266,70.272,70.278,70.284,70.29,70.296,70.302,70.308,70.314,70.32,70.326,70.332,70.338,70.344,70.35,70.356,70.362,70.368,70.374,70.38,70.386,70.392,70.398,70.404,70.41,70.416,70.422,70.428,70.434,70.44,70.446,70.452,70.458,70.464,70.47,70.476,70.482,70.488,70.494,70.5,70.506,70.512,70.518,70.524,70.53,70.536,70.542,70.548,70.554,70.56,70.566,70.572,70.578,70.584,70.59,70.596,70.602,70.608,70.614,70.62,70.626,70.632,70.638,70.644,70.65,70.656,70.662,70.668,70.674,70.68,70.686,70.692,70.698,70.704,70.71,70.716,70.722,70.728,70.734,70.74,70.746,70.752,70.758,70.764,70.77,70.776,70.782,70.788,70.794,70.8,70.806,70.812,70.818,70.824,70.83,70.836,70.842,70.848,70.854,70.86,70.866,70.872,70.878,70.884,70.89,70.896,70.902,70.908,70.914,70.92,70.926,70.932,70.938,70.944,70.95,70.956,70.962,70.968,70.974,70.98,70.986,70.992,70.998,71.004,71.01,71.016,71.022,71.028,71.034,71.04,71.046,71.052,71.058,71.064,71.07,71.076,71.082,71.088,71.094,71.1,71.106,71.112,71.118,71.124,71.13,71.136,71.142,71.148,71.154,71.16,71.166,71.172,71.178,71.184,71.19,71.196,71.202,71.208,71.214,71.22,71.226,71.232,71.238,71.244,71.25,71.256,71.262,71.268,71.274,71.28,71.286,71.292,71.298,71.304,71.31,71.316,71.322,71.328,71.334,71.34,71.346,71.352,71.358,71.364,71.37,71.376,71.382,71.388,71.394,71.4,71.406,71.412,71.418,71.424,71.43,71.436,71.442,71.448,71.454,71.46,71.466,71.472,71.478,71.484,71.49,71.496,71.502,71.508,71.514,71.52,71.526,71.532,71.538,71.544,71.55,71.556,71.562,71.568,71.574,71.58,71.586,71.592,71.598,71.604,71.61,71.616,71.622,71.628,71.634,71.64,71.646,71.652,71.658,71.664,71.67,71.676,71.682,71.688,71.694,71.7,71.706,71.712,71.718,71.724,71.73,71.736,71.742,71.748,71.754,71.76,71.766,71.772,71.778,71.784,71.79,71.796,71.802,71.808,71.814,71.82,71.826,71.832,71.838,71.844,71.85,71.856,71.862,71.868,71.874,71.88,71.886,71.892,71.898,71.904,71.91,71.916,71.922,71.928,71.934,71.94,71.946,71.952,71.958,71.964,71.97,71.976,71.982,71.988,71.994,72,72.006,72.012,72.018,72.024,72.03,72.036,72.042,72.048,72.054,72.06,72.066,72.072,72.078,72.084,72.09,72.096,72.102,72.108,72.114,72.12,72.126,72.132,72.138,72.144,72.15,72.156,72.162,72.168,72.174,72.18,72.186,72.192,72.198,72.204,72.21,72.216,72.222,72.228,72.234,72.24,72.246,72.252,72.258,72.264,72.27,72.276,72.282,72.288,72.294,72.3,72.306,72.312,72.318,72.324,72.33,72.336,72.342,72.348,72.354,72.36,72.366,72.372,72.378,72.384,72.39,72.396,72.402,72.408,72.414,72.42,72.426,72.432,72.438,72.444,72.45,72.456,72.462,72.468,72.474,72.48,72.486,72.492,72.498,72.504,72.51,72.516,72.522,72.528,72.534,72.54,72.546,72.552,72.558,72.564,72.57,72.576,72.582,72.588,72.594,72.6,72.606,72.612,72.618,72.624,72.63,72.636,72.642,72.648,72.654,72.66,72.666,72.672,72.678,72.684,72.69,72.696,72.702,72.708,72.714,72.72,72.726,72.732,72.738,72.744,72.75,72.756,72.762,72.768,72.774,72.78,72.786,72.792,72.798,72.804,72.81,72.816,72.822,72.828,72.834,72.84,72.846,72.852,72.858,72.864,72.87,72.876,72.882,72.888,72.894,72.9,72.906,72.912,72.918,72.924,72.93,72.936,72.942,72.948,72.954,72.96,72.966,72.972,72.978,72.984,72.99,72.996,73.002,73.008,73.014,73.02,73.026,73.032,73.038,73.044,73.05,73.056,73.062,73.068,73.074,73.08,73.086,73.092,73.098,73.104,73.11,73.116,73.122,73.128,73.134,73.14,73.146,73.152,73.158,73.164,73.17,73.176,73.182,73.188,73.194,73.2,73.206,73.212,73.218,73.224,73.23,73.236,73.242,73.248,73.254,73.26,73.266,73.272,73.278,73.284,73.29,73.296,73.302,73.308,73.314,73.32,73.326,73.332,73.338,73.344,73.35,73.356,73.362,73.368,73.374,73.38,73.386,73.392,73.398,73.404,73.41,73.416,73.422,73.428,73.434,73.44,73.446,73.452,73.458,73.464,73.47,73.476,73.482,73.488,73.494,73.5,73.506,73.512,73.518,73.524,73.53,73.536,73.542,73.548,73.554,73.56,73.566,73.572,73.578,73.584,73.59,73.596,73.602,73.608,73.614,73.62,73.626,73.632,73.638,73.644,73.65,73.656,73.662,73.668,73.674,73.68,73.686,73.692,73.698,73.704,73.71,73.716,73.722,73.728,73.734,73.74,73.746,73.752,73.758,73.764,73.77,73.776,73.782,73.788,73.794,73.8,73.806,73.812,73.818,73.824,73.83,73.836,73.842,73.848,73.854,73.86,73.866,73.872,73.878,73.884,73.89,73.896,73.902,73.908,73.914,73.92,73.926,73.932,73.938,73.944,73.95,73.956,73.962,73.968,73.974,73.98,73.986,73.992,73.998,74.004,74.01,74.016,74.022,74.028,74.034,74.04,74.046,74.052,74.058,74.064,74.07,74.076,74.082,74.088,74.094,74.1,74.106,74.112,74.118,74.124,74.13,74.136,74.142,74.148,74.154,74.16,74.166,74.172,74.178,74.184,74.19,74.196,74.202,74.208,74.214,74.22,74.226,74.232,74.238,74.244,74.25,74.256,74.262,74.268,74.274,74.28,74.286,74.292,74.298,74.304,74.31,74.316,74.322,74.328,74.334,74.34,74.346,74.352,74.358,74.364,74.37,74.376,74.382,74.388,74.394,74.4,74.406,74.412,74.418,74.424,74.43,74.436,74.442,74.448,74.454,74.46,74.466,74.472,74.478,74.484,74.49,74.496,74.502,74.508,74.514,74.52,74.526,74.532,74.538,74.544,74.55,74.556,74.562,74.568,74.574,74.58,74.586,74.592,74.598,74.604,74.61,74.616,74.622,74.628,74.634,74.64,74.646,74.652,74.658,74.664,74.67,74.676,74.682,74.688,74.694,74.7,74.706,74.712,74.718,74.724,74.73,74.736,74.742,74.748,74.754,74.76,74.766,74.772,74.778,74.784,74.79,74.796,74.802,74.808,74.814,74.82,74.826,74.832,74.838,74.844,74.85,74.856,74.862,74.868,74.874,74.88,74.886,74.892,74.898,74.904,74.91,74.916,74.922,74.928,74.934,74.94,74.946,74.952,74.958,74.964,74.97,74.976,74.982,74.988,74.994,75,75.006,75.012,75.018,75.024,75.03,75.036,75.042,75.048,75.054,75.06,75.066,75.072,75.078,75.084,75.09,75.096,75.102,75.108,75.114,75.12,75.126,75.132,75.138,75.144,75.15,75.156,75.162,75.168,75.174,75.18,75.186,75.192,75.198,75.204,75.21,75.216,75.222,75.228,75.234,75.24,75.246,75.252,75.258,75.264,75.27,75.276,75.282,75.288,75.294,75.3,75.306,75.312,75.318,75.324,75.33,75.336,75.342,75.348,75.354,75.36,75.366,75.372,75.378,75.384,75.39,75.396,75.402,75.408,75.414,75.42,75.426,75.432,75.438,75.444,75.45,75.456,75.462,75.468,75.474,75.48,75.486,75.492,75.498,75.504,75.51,75.516,75.522,75.528,75.534,75.54,75.546,75.552,75.558,75.564,75.57,75.576,75.582,75.588,75.594,75.6,75.606,75.612,75.618,75.624,75.63,75.636,75.642,75.648,75.654,75.66,75.666,75.672,75.678,75.684,75.69,75.696,75.702,75.708,75.714,75.72,75.726,75.732,75.738,75.744,75.75,75.756,75.762,75.768,75.774,75.78,75.786,75.792,75.798,75.804,75.81,75.816,75.822,75.828,75.834,75.84,75.846,75.852,75.858,75.864,75.87,75.876,75.882,75.888,75.894,75.9,75.906,75.912,75.918,75.924,75.93,75.936,75.942,75.948,75.954,75.96,75.966,75.972,75.978,75.984,75.99,75.996,76.002,76.008,76.014,76.02,76.026,76.032,76.038,76.044,76.05,76.056,76.062,76.068,76.074,76.08,76.086,76.092,76.098,76.104,76.11,76.116,76.122,76.128,76.134,76.14,76.146,76.152,76.158,76.164,76.17,76.176,76.182,76.188,76.194,76.2,76.206,76.212,76.218,76.224,76.23,76.236,76.242,76.248,76.254,76.26,76.266,76.272,76.278,76.284,76.29,76.296,76.302,76.308,76.314,76.32,76.326,76.332,76.338,76.344,76.35,76.356,76.362,76.368,76.374,76.38,76.386,76.392,76.398,76.404,76.41,76.416,76.422,76.428,76.434,76.44,76.446,76.452,76.458,76.464,76.47,76.476,76.482,76.488,76.494,76.5,76.506,76.512,76.518,76.524,76.53,76.536,76.542,76.548,76.554,76.56,76.566,76.572,76.578,76.584,76.59,76.596,76.602,76.608,76.614,76.62,76.626,76.632,76.638,76.644,76.65,76.656,76.662,76.668,76.674,76.68,76.686,76.692,76.698,76.704,76.71,76.716,76.722,76.728,76.734,76.74,76.746,76.752,76.758,76.764,76.77,76.776,76.782,76.788,76.794,76.8,76.806,76.812,76.818,76.824,76.83,76.836,76.842,76.848,76.854,76.86,76.866,76.872,76.878,76.884,76.89,76.896,76.902,76.908,76.914,76.92,76.926,76.932,76.938,76.944,76.95,76.956,76.962,76.968,76.974,76.98,76.986,76.992,76.998,77.004,77.01,77.016,77.022,77.028,77.034,77.04,77.046,77.052,77.058,77.064,77.07,77.076,77.082,77.088,77.094,77.1,77.106,77.112,77.118,77.124,77.13,77.136,77.142,77.148,77.154,77.16,77.166,77.172,77.178,77.184,77.19,77.196,77.202,77.208,77.214,77.22,77.226,77.232,77.238,77.244,77.25,77.256,77.262,77.268,77.274,77.28,77.286,77.292,77.298,77.304,77.31,77.316,77.322,77.328,77.334,77.34,77.346,77.352,77.358,77.364,77.37,77.376,77.382,77.388,77.394,77.4,77.406,77.412,77.418,77.424,77.43,77.436,77.442,77.448,77.454,77.46,77.466,77.472,77.478,77.484,77.49,77.496,77.502,77.508,77.514,77.52,77.526,77.532,77.538,77.544,77.55,77.556,77.562,77.568,77.574,77.58,77.586,77.592,77.598,77.604,77.61,77.616,77.622,77.628,77.634,77.64,77.646,77.652,77.658,77.664,77.67,77.676,77.682,77.688,77.694,77.7,77.706,77.712,77.718,77.724,77.73,77.736,77.742,77.748,77.754,77.76,77.766,77.772,77.778,77.784,77.79,77.796,77.802,77.808,77.814,77.82,77.826,77.832,77.838,77.844,77.85,77.856,77.862,77.868,77.874,77.88,77.886,77.892,77.898,77.904,77.91,77.916,77.922,77.928,77.934,77.94,77.946,77.952,77.958,77.964,77.97,77.976,77.982,77.988,77.994,78,78.006,78.012,78.018,78.024,78.03,78.036,78.042,78.048,78.054,78.06,78.066,78.072,78.078,78.084,78.09,78.096,78.102,78.108,78.114,78.12,78.126,78.132,78.138,78.144,78.15,78.156,78.162,78.168,78.174,78.18,78.186,78.192,78.198,78.204,78.21,78.216,78.222,78.228,78.234,78.24,78.246,78.252,78.258,78.264,78.27,78.276,78.282,78.288,78.294,78.3,78.306,78.312,78.318,78.324,78.33,78.336,78.342,78.348,78.354,78.36,78.366,78.372,78.378,78.384,78.39,78.396,78.402,78.408,78.414,78.42,78.426,78.432,78.438,78.444,78.45,78.456,78.462,78.468,78.474,78.48,78.486,78.492,78.498,78.504,78.51,78.516,78.522,78.528,78.534,78.54,78.546,78.552,78.558,78.564,78.57,78.576,78.582,78.588,78.594,78.6,78.606,78.612,78.618,78.624,78.63,78.636,78.642,78.648,78.654,78.66,78.666,78.672,78.678,78.684,78.69,78.696,78.702,78.708,78.714,78.72,78.726,78.732,78.738,78.744,78.75,78.756,78.762,78.768,78.774,78.78,78.786,78.792,78.798,78.804,78.81,78.816,78.822,78.828,78.834,78.84,78.846,78.852,78.858,78.864,78.87,78.876,78.882,78.888,78.894,78.9,78.906,78.912,78.918,78.924,78.93,78.936,78.942,78.948,78.954,78.96,78.966,78.972,78.978,78.984,78.99,78.996,79.002,79.008,79.014,79.02,79.026,79.032,79.038,79.044,79.05,79.056,79.062,79.068,79.074,79.08,79.086,79.092,79.098,79.104,79.11,79.116,79.122,79.128,79.134,79.14,79.146,79.152,79.158,79.164,79.17,79.176,79.182,79.188,79.194,79.2,79.206,79.212,79.218,79.224,79.23,79.236,79.242,79.248,79.254,79.26,79.266,79.272,79.278,79.284,79.29,79.296,79.302,79.308,79.314,79.32,79.326,79.332,79.338,79.344,79.35,79.356,79.362,79.368,79.374,79.38,79.386,79.392,79.398,79.404,79.41,79.416,79.422,79.428,79.434,79.44,79.446,79.452,79.458,79.464,79.47,79.476,79.482,79.488,79.494,79.5,79.506,79.512,79.518,79.524,79.53,79.536,79.542,79.548,79.554,79.56,79.566,79.572,79.578,79.584,79.59,79.596,79.602,79.608,79.614,79.62,79.626,79.632,79.638,79.644,79.65,79.656,79.662,79.668,79.674,79.68,79.686,79.692,79.698,79.704,79.71,79.716,79.722,79.728,79.734,79.74,79.746,79.752,79.758,79.764,79.77,79.776,79.782,79.788,79.794,79.8,79.806,79.812,79.818,79.824,79.83,79.836,79.842,79.848,79.854,79.86,79.866,79.872,79.878,79.884,79.89,79.896,79.902,79.908,79.914,79.92,79.926,79.932,79.938,79.944,79.95,79.956,79.962,79.968,79.974,79.98,79.986,79.992,79.998,80.004,80.01,80.016,80.022,80.028,80.034,80.04,80.046,80.052,80.058,80.064,80.07,80.076,80.082,80.088,80.094,80.1,80.106,80.112,80.118,80.124,80.13,80.136,80.142,80.148,80.154,80.16,80.166,80.172,80.178,80.184,80.19,80.196,80.202,80.208,80.214,80.22,80.226,80.232,80.238,80.244,80.25,80.256,80.262,80.268,80.274,80.28,80.286,80.292,80.298,80.304,80.31,80.316,80.322,80.328,80.334,80.34,80.346,80.352,80.358,80.364,80.37,80.376,80.382,80.388,80.394,80.4,80.406,80.412,80.418,80.424,80.43,80.436,80.442,80.448,80.454,80.46,80.466,80.472,80.478,80.484,80.49,80.496,80.502,80.508,80.514,80.52,80.526,80.532,80.538,80.544,80.55,80.556,80.562,80.568,80.574,80.58,80.586,80.592,80.598,80.604,80.61,80.616,80.622,80.628,80.634,80.64,80.646,80.652,80.658,80.664,80.67,80.676,80.682,80.688,80.694,80.7,80.706,80.712,80.718,80.724,80.73,80.736,80.742,80.748,80.754,80.76,80.766,80.772,80.778,80.784,80.79,80.796,80.802,80.808,80.814,80.82,80.826,80.832,80.838,80.844,80.85,80.856,80.862,80.868,80.874,80.88,80.886,80.892,80.898,80.904,80.91,80.916,80.922,80.928,80.934,80.94,80.946,80.952,80.958,80.964,80.97,80.976,80.982,80.988,80.994,81,81.006,81.012,81.018,81.024,81.03,81.036,81.042,81.048,81.054,81.06,81.066,81.072,81.078,81.084,81.09,81.096,81.102,81.108,81.114,81.12,81.126,81.132,81.138,81.144,81.15,81.156,81.162,81.168,81.174,81.18,81.186,81.192,81.198,81.204,81.21,81.216,81.222,81.228,81.234,81.24,81.246,81.252,81.258,81.264,81.27,81.276,81.282,81.288,81.294,81.3,81.306,81.312,81.318,81.324,81.33,81.336,81.342,81.348,81.354,81.36,81.366,81.372,81.378,81.384,81.39,81.396,81.402,81.408,81.414,81.42,81.426,81.432,81.438,81.444,81.45,81.456,81.462,81.468,81.474,81.48,81.486,81.492,81.498,81.504,81.51,81.516,81.522,81.528,81.534,81.54,81.546,81.552,81.558,81.564,81.57,81.576,81.582,81.588,81.594,81.6,81.606,81.612,81.618,81.624,81.63,81.636,81.642,81.648,81.654,81.66,81.666,81.672,81.678,81.684,81.69,81.696,81.702,81.708,81.714,81.72,81.726,81.732,81.738,81.744,81.75,81.756,81.762,81.768,81.774,81.78,81.786,81.792,81.798,81.804,81.81,81.816,81.822,81.828,81.834,81.84,81.846,81.852,81.858,81.864,81.87,81.876,81.882,81.888,81.894,81.9,81.906,81.912,81.918,81.924,81.93,81.936,81.942,81.948,81.954,81.96,81.966,81.972,81.978,81.984,81.99,81.996,82.002,82.008,82.014,82.02,82.026,82.032,82.038,82.044,82.05,82.056,82.062,82.068,82.074,82.08,82.086,82.092,82.098,82.104,82.11,82.116,82.122,82.128,82.134,82.14,82.146,82.152,82.158,82.164,82.17,82.176,82.182,82.188,82.194,82.2,82.206,82.212,82.218,82.224,82.23,82.236,82.242,82.248,82.254,82.26,82.266,82.272,82.278,82.284,82.29,82.296,82.302,82.308,82.314,82.32,82.326,82.332,82.338,82.344,82.35,82.356,82.362,82.368,82.374,82.38,82.386,82.392,82.398,82.404,82.41,82.416,82.422,82.428,82.434,82.44,82.446,82.452,82.458,82.464,82.47,82.476,82.482,82.488,82.494,82.5,82.506,82.512,82.518,82.524,82.53,82.536,82.542,82.548,82.554,82.56,82.566,82.572,82.578,82.584,82.59,82.596,82.602,82.608,82.614,82.62,82.626,82.632,82.638,82.644,82.65,82.656,82.662,82.668,82.674,82.68,82.686,82.692,82.698,82.704,82.71,82.716,82.722,82.728,82.734,82.74,82.746,82.752,82.758,82.764,82.77,82.776,82.782,82.788,82.794,82.8,82.806,82.812,82.818,82.824,82.83,82.836,82.842,82.848,82.854,82.86,82.866,82.872,82.878,82.884,82.89,82.896,82.902,82.908,82.914,82.92,82.926,82.932,82.938,82.944,82.95,82.956,82.962,82.968,82.974,82.98,82.986,82.992,82.998,83.004,83.01,83.016,83.022,83.028,83.034,83.04,83.046,83.052,83.058,83.064,83.07,83.076,83.082,83.088,83.094,83.1,83.106,83.112,83.118,83.124,83.13,83.136,83.142,83.148,83.154,83.16,83.166,83.172,83.178,83.184,83.19,83.196,83.202,83.208,83.214,83.22,83.226,83.232,83.238,83.244,83.25,83.256,83.262,83.268,83.274,83.28,83.286,83.292,83.298,83.304,83.31,83.316,83.322,83.328,83.334,83.34,83.346,83.352,83.358,83.364,83.37,83.376,83.382,83.388,83.394,83.4,83.406,83.412,83.418,83.424,83.43,83.436,83.442,83.448,83.454,83.46,83.466,83.472,83.478,83.484,83.49,83.496,83.502,83.508,83.514,83.52,83.526,83.532,83.538,83.544,83.55,83.556,83.562,83.568,83.574,83.58,83.586,83.592,83.598,83.604,83.61,83.616,83.622,83.628,83.634,83.64,83.646,83.652,83.658,83.664,83.67,83.676,83.682,83.688,83.694,83.7,83.706,83.712,83.718,83.724,83.73,83.736,83.742,83.748,83.754,83.76,83.766,83.772,83.778,83.784,83.79,83.796,83.802,83.808,83.814,83.82,83.826,83.832,83.838,83.844,83.85,83.856,83.862,83.868,83.874,83.88,83.886,83.892,83.898,83.904,83.91,83.916,83.922,83.928,83.934,83.94,83.946,83.952,83.958,83.964,83.97,83.976,83.982,83.988,83.994,84,84.006,84.012,84.018,84.024,84.03,84.036,84.042,84.048,84.054,84.06,84.066,84.072,84.078,84.084,84.09,84.096,84.102,84.108,84.114,84.12,84.126,84.132,84.138,84.144,84.15,84.156,84.162,84.168,84.174,84.18,84.186,84.192,84.198,84.204,84.21,84.216,84.222,84.228,84.234,84.24,84.246,84.252,84.258,84.264,84.27,84.276,84.282,84.288,84.294,84.3,84.306,84.312,84.318,84.324,84.33,84.336,84.342,84.348,84.354,84.36,84.366,84.372,84.378,84.384,84.39,84.396,84.402,84.408,84.414,84.42,84.426,84.432,84.438,84.444,84.45,84.456,84.462,84.468,84.474,84.48,84.486,84.492,84.498,84.504,84.51,84.516,84.522,84.528,84.534,84.54,84.546,84.552,84.558,84.564,84.57,84.576,84.582,84.588,84.594,84.6,84.606,84.612,84.618,84.624,84.63,84.636,84.642,84.648,84.654,84.66,84.666,84.672,84.678,84.684,84.69,84.696,84.702,84.708,84.714,84.72,84.726,84.732,84.738,84.744,84.75,84.756,84.762,84.768,84.774,84.78,84.786,84.792,84.798,84.804,84.81,84.816,84.822,84.828,84.834,84.84,84.846,84.852,84.858,84.864,84.87,84.876,84.882,84.888,84.894,84.9,84.906,84.912,84.918,84.924,84.93,84.936,84.942,84.948,84.954,84.96,84.966,84.972,84.978,84.984,84.99,84.996,85.002,85.008,85.014,85.02,85.026,85.032,85.038,85.044,85.05,85.056,85.062,85.068,85.074,85.08,85.086,85.092,85.098,85.104,85.11,85.116,85.122,85.128,85.134,85.14,85.146,85.152,85.158,85.164,85.17,85.176,85.182,85.188,85.194,85.2,85.206,85.212,85.218,85.224,85.23,85.236,85.242,85.248,85.254,85.26,85.266,85.272,85.278,85.284,85.29,85.296,85.302,85.308,85.314,85.32,85.326,85.332,85.338,85.344,85.35,85.356,85.362,85.368,85.374,85.38,85.386,85.392,85.398,85.404,85.41,85.416,85.422,85.428,85.434,85.44,85.446,85.452,85.458,85.464,85.47,85.476,85.482,85.488,85.494,85.5,85.506,85.512,85.518,85.524,85.53,85.536,85.542,85.548,85.554,85.56,85.566,85.572,85.578,85.584,85.59,85.596,85.602,85.608,85.614,85.62,85.626,85.632,85.638,85.644,85.65,85.656,85.662,85.668,85.674,85.68,85.686,85.692,85.698,85.704,85.71,85.716,85.722,85.728,85.734,85.74,85.746,85.752,85.758,85.764,85.77,85.776,85.782,85.788,85.794,85.8,85.806,85.812,85.818,85.824,85.83,85.836,85.842,85.848,85.854,85.86,85.866,85.872,85.878,85.884,85.89,85.896,85.902,85.908,85.914,85.92,85.926,85.932,85.938,85.944,85.95,85.956,85.962,85.968,85.974,85.98,85.986,85.992,85.998,86.004,86.01,86.016,86.022,86.028,86.034,86.04,86.046,86.052,86.058,86.064,86.07,86.076,86.082,86.088,86.094,86.1,86.106,86.112,86.118,86.124,86.13,86.136,86.142,86.148,86.154,86.16,86.166,86.172,86.178,86.184,86.19,86.196,86.202,86.208,86.214,86.22,86.226,86.232,86.238,86.244,86.25,86.256,86.262,86.268,86.274,86.28,86.286,86.292,86.298,86.304,86.31,86.316,86.322,86.328,86.334,86.34,86.346,86.352,86.358,86.364,86.37,86.376,86.382,86.388,86.394,86.4,86.406,86.412,86.418,86.424,86.43,86.436,86.442,86.448,86.454,86.46,86.466,86.472,86.478,86.484,86.49,86.496,86.502,86.508,86.514,86.52,86.526,86.532,86.538,86.544,86.55,86.556,86.562,86.568,86.574,86.58,86.586,86.592,86.598,86.604,86.61,86.616,86.622,86.628,86.634,86.64,86.646,86.652,86.658,86.664,86.67,86.676,86.682,86.688,86.694,86.7,86.706,86.712,86.718,86.724,86.73,86.736,86.742,86.748,86.754,86.76,86.766,86.772,86.778,86.784,86.79,86.796,86.802,86.808,86.814,86.82,86.826,86.832,86.838,86.844,86.85,86.856,86.862,86.868,86.874,86.88,86.886,86.892,86.898,86.904,86.91,86.916,86.922,86.928,86.934,86.94,86.946,86.952,86.958,86.964,86.97,86.976,86.982,86.988,86.994,87,87.006,87.012,87.018,87.024,87.03,87.036,87.042,87.048,87.054,87.06,87.066,87.072,87.078,87.084,87.09,87.096,87.102,87.108,87.114,87.12,87.126,87.132,87.138,87.144,87.15,87.156,87.162,87.168,87.174,87.18,87.186,87.192,87.198,87.204,87.21,87.216,87.222,87.228,87.234,87.24,87.246,87.252,87.258,87.264,87.27,87.276,87.282,87.288,87.294,87.3,87.306,87.312,87.318,87.324,87.33,87.336,87.342,87.348,87.354,87.36,87.366,87.372,87.378,87.384,87.39,87.396,87.402,87.408,87.414,87.42,87.426,87.432,87.438,87.444,87.45,87.456,87.462,87.468,87.474,87.48,87.486,87.492,87.498,87.504,87.51,87.516,87.522,87.528,87.534,87.54,87.546,87.552,87.558,87.564,87.57,87.576,87.582,87.588,87.594,87.6,87.606,87.612,87.618,87.624,87.63,87.636,87.642,87.648,87.654,87.66,87.666,87.672,87.678,87.684,87.69,87.696,87.702,87.708,87.714,87.72,87.726,87.732,87.738,87.744,87.75,87.756,87.762,87.768,87.774,87.78,87.786,87.792,87.798,87.804,87.81,87.816,87.822,87.828,87.834,87.84,87.846,87.852,87.858,87.864,87.87,87.876,87.882,87.888,87.894,87.9,87.906,87.912,87.918,87.924,87.93,87.936,87.942,87.948,87.954,87.96,87.966,87.972,87.978,87.984,87.99,87.996,88.002,88.008,88.014,88.02,88.026,88.032,88.038,88.044,88.05,88.056,88.062,88.068,88.074,88.08,88.086,88.092,88.098,88.104,88.11,88.116,88.122,88.128,88.134,88.14,88.146,88.152,88.158,88.164,88.17,88.176,88.182,88.188,88.194,88.2,88.206,88.212,88.218,88.224,88.23,88.236,88.242,88.248,88.254,88.26,88.266,88.272,88.278,88.284,88.29,88.296,88.302,88.308,88.314,88.32,88.326,88.332,88.338,88.344,88.35,88.356,88.362,88.368,88.374,88.38,88.386,88.392,88.398,88.404,88.41,88.416,88.422,88.428,88.434,88.44,88.446,88.452,88.458,88.464,88.47,88.476,88.482,88.488,88.494,88.5,88.506,88.512,88.518,88.524,88.53,88.536,88.542,88.548,88.554,88.56,88.566,88.572,88.578,88.584,88.59,88.596,88.602,88.608,88.614,88.62,88.626,88.632,88.638,88.644,88.65,88.656,88.662,88.668,88.674,88.68,88.686,88.692,88.698,88.704,88.71,88.716,88.722,88.728,88.734,88.74,88.746,88.752,88.758,88.764,88.77,88.776,88.782,88.788,88.794,88.8,88.806,88.812,88.818,88.824,88.83,88.836,88.842,88.848,88.854,88.86,88.866,88.872,88.878,88.884,88.89,88.896,88.902,88.908,88.914,88.92,88.926,88.932,88.938,88.944,88.95,88.956,88.962,88.968,88.974,88.98,88.986,88.992,88.998,89.004,89.01,89.016,89.022,89.028,89.034,89.04,89.046,89.052,89.058,89.064,89.07,89.076,89.082,89.088,89.094,89.1,89.106,89.112,89.118,89.124,89.13,89.136,89.142,89.148,89.154,89.16,89.166,89.172,89.178,89.184,89.19,89.196,89.202,89.208,89.214,89.22,89.226,89.232,89.238,89.244,89.25,89.256,89.262,89.268,89.274,89.28,89.286,89.292,89.298,89.304,89.31,89.316,89.322,89.328,89.334,89.34,89.346,89.352,89.358,89.364,89.37,89.376,89.382,89.388,89.394,89.4,89.406,89.412,89.418,89.424,89.43,89.436,89.442,89.448,89.454,89.46,89.466,89.472,89.478,89.484,89.49,89.496,89.502,89.508,89.514,89.52,89.526,89.532,89.538,89.544,89.55,89.556,89.562,89.568,89.574,89.58,89.586,89.592,89.598,89.604,89.61,89.616,89.622,89.628,89.634,89.64,89.646,89.652,89.658,89.664,89.67,89.676,89.682,89.688,89.694,89.7,89.706,89.712,89.718,89.724,89.73,89.736,89.742,89.748,89.754,89.76,89.766,89.772,89.778,89.784,89.79,89.796,89.802,89.808,89.814,89.82,89.826,89.832,89.838,89.844,89.85,89.856,89.862,89.868,89.874,89.88,89.886,89.892,89.898,89.904,89.91,89.916,89.922,89.928,89.934,89.94,89.946,89.952,89.958,89.964,89.97,89.976,89.982,89.988,89.994,90,90.006,90.012,90.018,90.024,90.03,90.036,90.042,90.048,90.054,90.06,90.066,90.072,90.078,90.084,90.09,90.096,90.102,90.108,90.114,90.12,90.126,90.132,90.138,90.144,90.15,90.156,90.162,90.168,90.174,90.18,90.186,90.192,90.198,90.204,90.21,90.216,90.222,90.228,90.234,90.24,90.246,90.252,90.258,90.264,90.27,90.276,90.282,90.288,90.294,90.3,90.306,90.312,90.318,90.324,90.33,90.336,90.342,90.348,90.354,90.36,90.366,90.372,90.378,90.384,90.39,90.396,90.402,90.408,90.414,90.42,90.426,90.432,90.438,90.444,90.45,90.456,90.462,90.468,90.474,90.48,90.486,90.492,90.498,90.504,90.51,90.516,90.522,90.528,90.534,90.54,90.546,90.552,90.558,90.564,90.57,90.576,90.582,90.588,90.594,90.6,90.606,90.612,90.618,90.624,90.63,90.636,90.642,90.648,90.654,90.66,90.666,90.672,90.678,90.684,90.69,90.696,90.702,90.708,90.714,90.72,90.726,90.732,90.738,90.744,90.75,90.756,90.762,90.768,90.774,90.78,90.786,90.792,90.798,90.804,90.81,90.816,90.822,90.828,90.834,90.84,90.846,90.852,90.858,90.864,90.87,90.876,90.882,90.888,90.894,90.9,90.906,90.912,90.918,90.924,90.93,90.936,90.942,90.948,90.954,90.96,90.966,90.972,90.978,90.984,90.99,90.996,91.002,91.008,91.014,91.02,91.026,91.032,91.038,91.044,91.05,91.056,91.062,91.068,91.074,91.08,91.086,91.092,91.098,91.104,91.11,91.116,91.122,91.128,91.134,91.14,91.146,91.152,91.158,91.164,91.17,91.176,91.182,91.188,91.194,91.2,91.206,91.212,91.218,91.224,91.23,91.236,91.242,91.248,91.254,91.26,91.266,91.272,91.278,91.284,91.29,91.296,91.302,91.308,91.314,91.32,91.326,91.332,91.338,91.344,91.35,91.356,91.362,91.368,91.374,91.38,91.386,91.392,91.398,91.404,91.41,91.416,91.422,91.428,91.434,91.44,91.446,91.452,91.458,91.464,91.47,91.476,91.482,91.488,91.494,91.5,91.506,91.512,91.518,91.524,91.53,91.536,91.542,91.548,91.554,91.56,91.566,91.572,91.578,91.584,91.59,91.596,91.602,91.608,91.614,91.62,91.626,91.632,91.638,91.644,91.65,91.656,91.662,91.668,91.674,91.68,91.686,91.692,91.698,91.704,91.71,91.716,91.722,91.728,91.734,91.74,91.746,91.752,91.758,91.764,91.77,91.776,91.782,91.788,91.794,91.8,91.806,91.812,91.818,91.824,91.83,91.836,91.842,91.848,91.854,91.86,91.866,91.872,91.878,91.884,91.89,91.896,91.902,91.908,91.914,91.92,91.926,91.932,91.938,91.944,91.95,91.956,91.962,91.968,91.974,91.98,91.986,91.992,91.998,92.004,92.01,92.016,92.022,92.028,92.034,92.04,92.046,92.052,92.058,92.064,92.07,92.076,92.082,92.088,92.094,92.1,92.106,92.112,92.118,92.124,92.13,92.136,92.142,92.148,92.154,92.16,92.166,92.172,92.178,92.184,92.19,92.196,92.202,92.208,92.214,92.22,92.226,92.232,92.238,92.244,92.25,92.256,92.262,92.268,92.274,92.28,92.286,92.292,92.298,92.304,92.31,92.316,92.322,92.328,92.334,92.34,92.346,92.352,92.358,92.364,92.37,92.376,92.382,92.388,92.394,92.4,92.406,92.412,92.418,92.424,92.43,92.436,92.442,92.448,92.454,92.46,92.466,92.472,92.478,92.484,92.49,92.496,92.502,92.508,92.514,92.52,92.526,92.532,92.538,92.544,92.55,92.556,92.562,92.568,92.574,92.58,92.586,92.592,92.598,92.604,92.61,92.616,92.622,92.628,92.634,92.64,92.646,92.652,92.658,92.664,92.67,92.676,92.682,92.688,92.694,92.7,92.706,92.712,92.718,92.724,92.73,92.736,92.742,92.748,92.754,92.76,92.766,92.772,92.778,92.784,92.79,92.796,92.802,92.808,92.814,92.82,92.826,92.832,92.838,92.844,92.85,92.856,92.862,92.868,92.874,92.88,92.886,92.892,92.898,92.904,92.91,92.916,92.922,92.928,92.934,92.94,92.946,92.952,92.958,92.964,92.97,92.976,92.982,92.988,92.994,93,93.006,93.012,93.018,93.024,93.03,93.036,93.042,93.048,93.054,93.06,93.066,93.072,93.078,93.084,93.09,93.096,93.102,93.108,93.114,93.12,93.126,93.132,93.138,93.144,93.15,93.156,93.162,93.168,93.174,93.18,93.186,93.192,93.198,93.204,93.21,93.216,93.222,93.228,93.234,93.24,93.246,93.252,93.258,93.264,93.27,93.276,93.282,93.288,93.294,93.3,93.306,93.312,93.318,93.324,93.33,93.336,93.342,93.348,93.354,93.36,93.366,93.372,93.378,93.384,93.39,93.396,93.402,93.408,93.414,93.42,93.426,93.432,93.438,93.444,93.45,93.456,93.462,93.468,93.474,93.48,93.486,93.492,93.498,93.504,93.51,93.516,93.522,93.528,93.534,93.54,93.546,93.552,93.558,93.564,93.57,93.576,93.582,93.588,93.594,93.6,93.606,93.612,93.618,93.624,93.63,93.636,93.642,93.648,93.654,93.66,93.666,93.672,93.678,93.684,93.69,93.696,93.702,93.708,93.714,93.72,93.726,93.732,93.738,93.744,93.75,93.756,93.762,93.768,93.774,93.78,93.786,93.792,93.798,93.804,93.81,93.816,93.822,93.828,93.834,93.84,93.846,93.852,93.858,93.864,93.87,93.876,93.882,93.888,93.894,93.9,93.906,93.912,93.918,93.924,93.93,93.936,93.942,93.948,93.954,93.96,93.966,93.972,93.978,93.984,93.99,93.996,94.002,94.008,94.014,94.02,94.026,94.032,94.038,94.044,94.05,94.056,94.062,94.068,94.074,94.08,94.086,94.092,94.098,94.104,94.11,94.116,94.122,94.128,94.134,94.14,94.146,94.152,94.158,94.164,94.17,94.176,94.182,94.188,94.194,94.2,94.206,94.212,94.218,94.224,94.23,94.236,94.242,94.248,94.254,94.26,94.266,94.272,94.278,94.284,94.29,94.296,94.302,94.308,94.314,94.32,94.326,94.332,94.338,94.344,94.35,94.356,94.362,94.368,94.374,94.38,94.386,94.392,94.398,94.404,94.41,94.416,94.422,94.428,94.434,94.44,94.446,94.452,94.458,94.464,94.47,94.476,94.482,94.488,94.494,94.5,94.506,94.512,94.518,94.524,94.53,94.536,94.542,94.548,94.554,94.56,94.566,94.572,94.578,94.584,94.59,94.596,94.602,94.608,94.614,94.62,94.626,94.632,94.638,94.644,94.65,94.656,94.662,94.668,94.674,94.68,94.686,94.692,94.698,94.704,94.71,94.716,94.722,94.728,94.734,94.74,94.746,94.752,94.758,94.764,94.77,94.776,94.782,94.788,94.794,94.8,94.806,94.812,94.818,94.824,94.83,94.836,94.842,94.848,94.854,94.86,94.866,94.872,94.878,94.884,94.89,94.896,94.902,94.908,94.914,94.92,94.926,94.932,94.938,94.944,94.95,94.956,94.962,94.968,94.974,94.98,94.986,94.992,94.998,95.004,95.01,95.016,95.022,95.028,95.034,95.04,95.046,95.052,95.058,95.064,95.07,95.076,95.082,95.088,95.094,95.1,95.106,95.112,95.118,95.124,95.13,95.136,95.142,95.148,95.154,95.16,95.166,95.172,95.178,95.184,95.19,95.196,95.202,95.208,95.214,95.22,95.226,95.232,95.238,95.244,95.25,95.256,95.262,95.268,95.274,95.28,95.286,95.292,95.298,95.304,95.31,95.316,95.322,95.328,95.334,95.34,95.346,95.352,95.358,95.364,95.37,95.376,95.382,95.388,95.394,95.4,95.406,95.412,95.418,95.424,95.43,95.436,95.442,95.448,95.454,95.46,95.466,95.472,95.478,95.484,95.49,95.496,95.502,95.508,95.514,95.52,95.526,95.532,95.538,95.544,95.55,95.556,95.562,95.568,95.574,95.58,95.586,95.592,95.598,95.604,95.61,95.616,95.622,95.628,95.634,95.64,95.646,95.652,95.658,95.664,95.67,95.676,95.682,95.688,95.694,95.7,95.706,95.712,95.718,95.724,95.73,95.736,95.742,95.748,95.754,95.76,95.766,95.772,95.778,95.784,95.79,95.796,95.802,95.808,95.814,95.82,95.826,95.832,95.838,95.844,95.85,95.856,95.862,95.868,95.874,95.88,95.886,95.892,95.898,95.904,95.91,95.916,95.922,95.928,95.934,95.94,95.946,95.952,95.958,95.964,95.97,95.976,95.982,95.988,95.994,96,96.006,96.012,96.018,96.024,96.03,96.036,96.042,96.048,96.054,96.06,96.066,96.072,96.078,96.084,96.09,96.096,96.102,96.108,96.114,96.12,96.126,96.132,96.138,96.144,96.15,96.156,96.162,96.168,96.174,96.18,96.186,96.192,96.198,96.204,96.21,96.216,96.222,96.228,96.234,96.24,96.246,96.252,96.258,96.264,96.27,96.276,96.282,96.288,96.294,96.3,96.306,96.312,96.318,96.324,96.33,96.336,96.342,96.348,96.354,96.36,96.366,96.372,96.378,96.384,96.39,96.396,96.402,96.408,96.414,96.42,96.426,96.432,96.438,96.444,96.45,96.456,96.462,96.468,96.474,96.48,96.486,96.492,96.498,96.504,96.51,96.516,96.522,96.528,96.534,96.54,96.546,96.552,96.558,96.564,96.57,96.576,96.582,96.588,96.594,96.6,96.606,96.612,96.618,96.624,96.63,96.636,96.642,96.648,96.654,96.66,96.666,96.672,96.678,96.684,96.69,96.696,96.702,96.708,96.714,96.72,96.726,96.732,96.738,96.744,96.75,96.756,96.762,96.768,96.774,96.78,96.786,96.792,96.798,96.804,96.81,96.816,96.822,96.828,96.834,96.84,96.846,96.852,96.858,96.864,96.87,96.876,96.882,96.888,96.894,96.9,96.906,96.912,96.918,96.924,96.93,96.936,96.942,96.948,96.954,96.96,96.966,96.972,96.978,96.984,96.99,96.996,97.002,97.008,97.014,97.02,97.026,97.032,97.038,97.044,97.05,97.056,97.062,97.068,97.074,97.08,97.086,97.092,97.098,97.104,97.11,97.116,97.122,97.128,97.134,97.14,97.146,97.152,97.158,97.164,97.17,97.176,97.182,97.188,97.194,97.2,97.206,97.212,97.218,97.224,97.23,97.236,97.242,97.248,97.254,97.26,97.266,97.272,97.278,97.284,97.29,97.296,97.302,97.308,97.314,97.32,97.326,97.332,97.338,97.344,97.35,97.356,97.362,97.368,97.374,97.38,97.386,97.392,97.398,97.404,97.41,97.416,97.422,97.428,97.434,97.44,97.446,97.452,97.458,97.464,97.47,97.476,97.482,97.488,97.494,97.5,97.506,97.512,97.518,97.524,97.53,97.536,97.542,97.548,97.554,97.56,97.566,97.572,97.578,97.584,97.59,97.596,97.602,97.608,97.614,97.62,97.626,97.632,97.638,97.644,97.65,97.656,97.662,97.668,97.674,97.68,97.686,97.692,97.698,97.704,97.71,97.716,97.722,97.728,97.734,97.74,97.746,97.752,97.758,97.764,97.77,97.776,97.782,97.788,97.794,97.8,97.806,97.812,97.818,97.824,97.83,97.836,97.842,97.848,97.854,97.86,97.866,97.872,97.878,97.884,97.89,97.896,97.902,97.908,97.914,97.92,97.926,97.932,97.938,97.944,97.95,97.956,97.962,97.968,97.974,97.98,97.986,97.992,97.998,98.004,98.01,98.016,98.022,98.028,98.034,98.04,98.046,98.052,98.058,98.064,98.07,98.076,98.082,98.088,98.094,98.1,98.106,98.112,98.118,98.124,98.13,98.136,98.142,98.148,98.154,98.16,98.166,98.172,98.178,98.184,98.19,98.196,98.202,98.208,98.214,98.22,98.226,98.232,98.238,98.244,98.25,98.256,98.262,98.268,98.274,98.28,98.286,98.292,98.298,98.304,98.31,98.316,98.322,98.328,98.334,98.34,98.346,98.352,98.358,98.364,98.37,98.376,98.382,98.388,98.394,98.4,98.406,98.412,98.418,98.424,98.43,98.436,98.442,98.448,98.454,98.46,98.466,98.472,98.478,98.484,98.49,98.496,98.502,98.508,98.514,98.52,98.526,98.532,98.538,98.544,98.55,98.556,98.562,98.568,98.574,98.58,98.586,98.592,98.598,98.604,98.61,98.616,98.622,98.628,98.634,98.64,98.646,98.652,98.658,98.664,98.67,98.676,98.682,98.688,98.694,98.7,98.706,98.712,98.718,98.724,98.73,98.736,98.742,98.748,98.754,98.76,98.766,98.772,98.778,98.784,98.79,98.796,98.802,98.808,98.814,98.82,98.826,98.832,98.838,98.844,98.85,98.856,98.862,98.868,98.874,98.88,98.886,98.892,98.898,98.904,98.91,98.916,98.922,98.928,98.934,98.94,98.946,98.952,98.958,98.964,98.97,98.976,98.982,98.988,98.994,99,99.006,99.012,99.018,99.024,99.03,99.036,99.042,99.048,99.054,99.06,99.066,99.072,99.078,99.084,99.09,99.096,99.102,99.108,99.114,99.12,99.126,99.132,99.138,99.144,99.15,99.156,99.162,99.168,99.174,99.18,99.186,99.192,99.198,99.204,99.21,99.216,99.222,99.228,99.234,99.24,99.246,99.252,99.258,99.264,99.27,99.276,99.282,99.288,99.294,99.3,99.306,99.312,99.318,99.324,99.33,99.336,99.342,99.348,99.354,99.36,99.366,99.372,99.378,99.384,99.39,99.396,99.402,99.408,99.414,99.42,99.426,99.432,99.438,99.444,99.45,99.456,99.462,99.468,99.474,99.48,99.486,99.492,99.498,99.504,99.51,99.516,99.522,99.528,99.534,99.54,99.546,99.552,99.558,99.564,99.57,99.576,99.582,99.588,99.594,99.6,99.606,99.612,99.618,99.624,99.63,99.636,99.642,99.648,99.654,99.66,99.666,99.672,99.678,99.684,99.69,99.696,99.702,99.708,99.714,99.72,99.726,99.732,99.738,99.744,99.75,99.756,99.762,99.768,99.774,99.78,99.786,99.792,99.798,99.804,99.81,99.816,99.822,99.828,99.834,99.84,99.846,99.852,99.858,99.864,99.87,99.876,99.882,99.888,99.894,99.9,99.906,99.912,99.918,99.924,99.93,99.936,99.942,99.948,99.954,99.96,99.966,99.972,99.978,99.984,99.99,99.996,100,100.01,100.01,100.02,100.03,100.03,100.04,100.04,100.05,100.06,100.06,100.07,100.07,100.08,100.09,100.09,100.1,100.1,100.11,100.12,100.12,100.13,100.13,100.14,100.15,100.15,100.16,100.16,100.17,100.18,100.18,100.19,100.19,100.2,100.21,100.21,100.22,100.22,100.23,100.24,100.24,100.25,100.25,100.26,100.27,100.27,100.28,100.28,100.29,100.3,100.3,100.31,100.31,100.32,100.33,100.33,100.34,100.34,100.35,100.36,100.36,100.37,100.37,100.38,100.39,100.39,100.4,100.4,100.41,100.42,100.42,100.43,100.43,100.44,100.45,100.45,100.46,100.46,100.47,100.48,100.48,100.49,100.49,100.5,100.51,100.51,100.52,100.52,100.53,100.54,100.54,100.55,100.55,100.56,100.57,100.57,100.58,100.58,100.59,100.6,100.6,100.61,100.61,100.62,100.63,100.63,100.64,100.64,100.65,100.66,100.66,100.67,100.67,100.68,100.69,100.69,100.7,100.7,100.71,100.72,100.72,100.73,100.73,100.74,100.75,100.75,100.76,100.76,100.77,100.78,100.78,100.79,100.79,100.8,100.81,100.81,100.82,100.82,100.83,100.84,100.84,100.85,100.85,100.86,100.87,100.87,100.88,100.88,100.89,100.9,100.9,100.91,100.91,100.92,100.93,100.93,100.94,100.94,100.95,100.96,100.96,100.97,100.97,100.98,100.99,100.99,101,101,101.01,101.02,101.02,101.03,101.03,101.04,101.05,101.05,101.06,101.06,101.07,101.08,101.08,101.09,101.09,101.1,101.11,101.11,101.12,101.12,101.13,101.14,101.14,101.15,101.15,101.16,101.17,101.17,101.18,101.18,101.19,101.2,101.2,101.21,101.21,101.22,101.23,101.23,101.24,101.24,101.25,101.26,101.26,101.27,101.27,101.28,101.29,101.29,101.3,101.3,101.31,101.32,101.32,101.33,101.33,101.34,101.35,101.35,101.36,101.36,101.37,101.38,101.38,101.39,101.39,101.4,101.41,101.41,101.42,101.42,101.43,101.44,101.44,101.45,101.45,101.46,101.47,101.47,101.48,101.48,101.49,101.5,101.5,101.51,101.51,101.52,101.53,101.53,101.54,101.54,101.55,101.56,101.56,101.57,101.57,101.58,101.59,101.59,101.6,101.6,101.61,101.62,101.62,101.63,101.63,101.64,101.65,101.65,101.66,101.66,101.67,101.68,101.68,101.69,101.69,101.7,101.71,101.71,101.72,101.72,101.73,101.74,101.74,101.75,101.75,101.76,101.77,101.77,101.78,101.78,101.79,101.8,101.8,101.81,101.81,101.82,101.83,101.83,101.84,101.84,101.85,101.86,101.86,101.87,101.87,101.88,101.89,101.89,101.9,101.9,101.91,101.92,101.92,101.93,101.93,101.94,101.95,101.95,101.96,101.96,101.97,101.98,101.98,101.99,101.99,102,102.01,102.01,102.02,102.02,102.03,102.04,102.04,102.05,102.05,102.06,102.07,102.07,102.08,102.08,102.09,102.1,102.1,102.11,102.11,102.12,102.13,102.13,102.14,102.14,102.15,102.16,102.16,102.17,102.17,102.18,102.19,102.19,102.2,102.2,102.21,102.22,102.22,102.23,102.23,102.24,102.25,102.25,102.26,102.26,102.27,102.28,102.28,102.29,102.29,102.3,102.31,102.31,102.32,102.32,102.33,102.34,102.34,102.35,102.35,102.36,102.37,102.37,102.38,102.38,102.39,102.4,102.4,102.41,102.41,102.42,102.43,102.43,102.44,102.44,102.45,102.46,102.46,102.47,102.47,102.48,102.49,102.49,102.5,102.5,102.51,102.52,102.52,102.53,102.53,102.54,102.55,102.55,102.56,102.56,102.57,102.58,102.58,102.59,102.59,102.6,102.61,102.61,102.62,102.62,102.63,102.64,102.64,102.65,102.65,102.66,102.67,102.67,102.68,102.68,102.69,102.7,102.7,102.71,102.71,102.72,102.73,102.73,102.74,102.74,102.75,102.76,102.76,102.77,102.77,102.78,102.79,102.79,102.8,102.8,102.81,102.82,102.82,102.83,102.83,102.84,102.85,102.85,102.86,102.86,102.87,102.88,102.88,102.89,102.89,102.9,102.91,102.91,102.92,102.92,102.93,102.94,102.94,102.95,102.95,102.96,102.97,102.97,102.98,102.98,102.99,103,103,103.01,103.01,103.02,103.03,103.03,103.04,103.04,103.05,103.06,103.06,103.07,103.07,103.08,103.09,103.09,103.1,103.1,103.11,103.12,103.12,103.13,103.13,103.14,103.15,103.15,103.16,103.16,103.17,103.18,103.18,103.19,103.19,103.2,103.21,103.21,103.22,103.22,103.23,103.24,103.24,103.25,103.25,103.26,103.27,103.27,103.28,103.28,103.29,103.3,103.3,103.31,103.31,103.32,103.33,103.33,103.34,103.34,103.35,103.36,103.36,103.37,103.37,103.38,103.39,103.39,103.4,103.4,103.41,103.42,103.42,103.43,103.43,103.44,103.45,103.45,103.46,103.46,103.47,103.48,103.48,103.49,103.49,103.5,103.51,103.51,103.52,103.52,103.53,103.54,103.54,103.55,103.55,103.56,103.57,103.57,103.58,103.58,103.59,103.6,103.6,103.61,103.61,103.62,103.63,103.63,103.64,103.64,103.65,103.66,103.66,103.67,103.67,103.68,103.69,103.69,103.7,103.7,103.71,103.72,103.72,103.73,103.73,103.74,103.75,103.75,103.76,103.76,103.77,103.78,103.78,103.79,103.79,103.8,103.81,103.81,103.82,103.82,103.83,103.84,103.84,103.85,103.85,103.86,103.87,103.87,103.88,103.88,103.89,103.9,103.9,103.91,103.91,103.92,103.93,103.93,103.94,103.94,103.95,103.96,103.96,103.97,103.97,103.98,103.99,103.99,104,104,104.01,104.02,104.02,104.03,104.03,104.04,104.05,104.05,104.06,104.06,104.07,104.08,104.08,104.09,104.09,104.1,104.11,104.11,104.12,104.12,104.13,104.14,104.14,104.15,104.15,104.16,104.17,104.17,104.18,104.18,104.19,104.2,104.2,104.21,104.21,104.22,104.23,104.23,104.24,104.24,104.25,104.26,104.26,104.27,104.27,104.28,104.29,104.29,104.3,104.3,104.31,104.32,104.32,104.33,104.33,104.34,104.35,104.35,104.36,104.36,104.37,104.38,104.38,104.39,104.39,104.4,104.41,104.41,104.42,104.42,104.43,104.44,104.44,104.45,104.45,104.46,104.47,104.47,104.48,104.48,104.49,104.5,104.5,104.51,104.51,104.52,104.53,104.53,104.54,104.54,104.55,104.56,104.56,104.57,104.57,104.58,104.59,104.59,104.6,104.6,104.61,104.62,104.62,104.63,104.63,104.64,104.65,104.65,104.66,104.66,104.67,104.68,104.68,104.69,104.69,104.7,104.71,104.71,104.72,104.72,104.73,104.74,104.74,104.75,104.75,104.76,104.77,104.77,104.78,104.78,104.79,104.8,104.8,104.81,104.81,104.82,104.83,104.83,104.84,104.84,104.85,104.86,104.86,104.87,104.87,104.88,104.89,104.89,104.9,104.9,104.91,104.92,104.92,104.93,104.93,104.94,104.95,104.95,104.96,104.96,104.97,104.98,104.98,104.99,104.99,105,105.01,105.01,105.02,105.02,105.03,105.04,105.04,105.05,105.05,105.06,105.07,105.07,105.08,105.08,105.09,105.1,105.1,105.11,105.11,105.12,105.13,105.13,105.14,105.14,105.15,105.16,105.16,105.17,105.17,105.18,105.19,105.19,105.2,105.2,105.21,105.22,105.22,105.23,105.23,105.24,105.25,105.25,105.26,105.26,105.27,105.28,105.28,105.29,105.29,105.3,105.31,105.31,105.32,105.32,105.33,105.34,105.34,105.35,105.35,105.36,105.37,105.37,105.38,105.38,105.39,105.4,105.4,105.41,105.41,105.42,105.43,105.43,105.44,105.44,105.45,105.46,105.46,105.47,105.47,105.48,105.49,105.49,105.5,105.5,105.51,105.52,105.52,105.53,105.53,105.54,105.55,105.55,105.56,105.56,105.57,105.58,105.58,105.59,105.59,105.6,105.61,105.61,105.62,105.62,105.63,105.64,105.64,105.65,105.65,105.66,105.67,105.67,105.68,105.68,105.69,105.7,105.7,105.71,105.71,105.72,105.73,105.73,105.74,105.74,105.75,105.76,105.76,105.77,105.77,105.78,105.79,105.79,105.8,105.8,105.81,105.82,105.82,105.83,105.83,105.84,105.85,105.85,105.86,105.86,105.87,105.88,105.88,105.89,105.89,105.9,105.91,105.91,105.92,105.92,105.93,105.94,105.94,105.95,105.95,105.96,105.97,105.97,105.98,105.98,105.99,106,106,106.01,106.01,106.02,106.03,106.03,106.04,106.04,106.05,106.06,106.06,106.07,106.07,106.08,106.09,106.09,106.1,106.1,106.11,106.12,106.12,106.13,106.13,106.14,106.15,106.15,106.16,106.16,106.17,106.18,106.18,106.19,106.19,106.2,106.21,106.21,106.22,106.22,106.23,106.24,106.24,106.25,106.25,106.26,106.27,106.27,106.28,106.28,106.29,106.3,106.3,106.31,106.31,106.32,106.33,106.33,106.34,106.34,106.35,106.36,106.36,106.37,106.37,106.38,106.39,106.39,106.4,106.4,106.41,106.42,106.42,106.43,106.43,106.44,106.45,106.45,106.46,106.46,106.47,106.48,106.48,106.49,106.49,106.5,106.51,106.51,106.52,106.52,106.53,106.54,106.54,106.55,106.55,106.56,106.57,106.57,106.58,106.58,106.59,106.6,106.6,106.61,106.61,106.62,106.63,106.63,106.64,106.64,106.65,106.66,106.66,106.67,106.67,106.68,106.69,106.69,106.7,106.7,106.71,106.72,106.72,106.73,106.73,106.74,106.75,106.75,106.76,106.76,106.77,106.78,106.78,106.79,106.79,106.8,106.81,106.81,106.82,106.82,106.83,106.84,106.84,106.85,106.85,106.86,106.87,106.87,106.88,106.88,106.89,106.9,106.9,106.91,106.91,106.92,106.93,106.93,106.94,106.94,106.95,106.96,106.96,106.97,106.97,106.98,106.99,106.99,107,107,107.01,107.02,107.02,107.03,107.03,107.04,107.05,107.05,107.06,107.06,107.07,107.08,107.08,107.09,107.09,107.1,107.11,107.11,107.12,107.12,107.13,107.14,107.14,107.15,107.15,107.16,107.17,107.17,107.18,107.18,107.19,107.2,107.2,107.21,107.21,107.22,107.23,107.23,107.24,107.24,107.25,107.26,107.26,107.27,107.27,107.28,107.29,107.29,107.3,107.3,107.31,107.32,107.32,107.33,107.33,107.34,107.35,107.35,107.36,107.36,107.37,107.38,107.38,107.39,107.39,107.4,107.41,107.41,107.42,107.42,107.43,107.44,107.44,107.45,107.45,107.46,107.47,107.47,107.48,107.48,107.49,107.5,107.5,107.51,107.51,107.52,107.53,107.53,107.54,107.54,107.55,107.56,107.56,107.57,107.57,107.58,107.59,107.59,107.6,107.6,107.61,107.62,107.62,107.63,107.63,107.64,107.65,107.65,107.66,107.66,107.67,107.68,107.68,107.69,107.69,107.7,107.71,107.71,107.72,107.72,107.73,107.74,107.74,107.75,107.75,107.76,107.77,107.77,107.78,107.78,107.79,107.8,107.8,107.81,107.81,107.82,107.83,107.83,107.84,107.84,107.85,107.86,107.86,107.87,107.87,107.88,107.89,107.89,107.9,107.9,107.91,107.92,107.92,107.93,107.93,107.94,107.95,107.95,107.96,107.96,107.97,107.98,107.98,107.99,107.99,108,108.01,108.01,108.02,108.02,108.03,108.04,108.04,108.05,108.05,108.06,108.07,108.07,108.08,108.08,108.09,108.1,108.1,108.11,108.11,108.12,108.13,108.13,108.14,108.14,108.15,108.16,108.16,108.17,108.17,108.18,108.19,108.19,108.2,108.2,108.21,108.22,108.22,108.23,108.23,108.24,108.25,108.25,108.26,108.26,108.27,108.28,108.28,108.29,108.29,108.3,108.31,108.31,108.32,108.32,108.33,108.34,108.34,108.35,108.35,108.36,108.37,108.37,108.38,108.38,108.39,108.4,108.4,108.41,108.41,108.42,108.43,108.43,108.44,108.44,108.45,108.46,108.46,108.47,108.47,108.48,108.49,108.49,108.5,108.5,108.51,108.52,108.52,