0.000000000000000000e+00,6.000000000000000125e-03,1.200000000000000025e-02,1.800000000000000211e-02,2.400000000000000050e-02,2.999999999999999889e-02,3.600000000000000422e-02,4.200000000000000261e-02,4.800000000000000100e-02,5.399999999999999939e-02,5.999999999999999778e-02,6.600000000000000311e-02,7.200000000000000844e-02,7.799999999999999989e-02,8.400000000000000522e-02,8.999999999999999667e-02,9.600000000000000200e-02,1.020000000000000073e-01,1.079999999999999988e-01,1.140000000000000041e-01,1.199999999999999956e-01,1.260000000000000009e-01,1.320000000000000062e-01,1.380000000000000115e-01,1.440000000000000169e-01,1.499999999999999944e-01,1.559999999999999998e-01,1.620000000000000051e-01,1.680000000000000104e-01,1.740000000000000158e-01,1.799999999999999933e-01,1.859999999999999987e-01,1.920000000000000040e-01,1.980000000000000093e-01,2.040000000000000147e-01,2.099999999999999922e-01,2.159999999999999976e-01,2.220000000000000029e-01,2.280000000000000082e-01,2.340000000000000135e-01,2.399999999999999911e-01,2.459999999999999964e-01,2.520000000000000018e-01,2.580000000000000071e-01,2.640000000000000124e-01,2.700000000000000178e-01,2.760000000000000231e-01,2.820000000000000284e-01,2.880000000000000338e-01,2.939999999999999836e-01,2.999999999999999889e-01,3.059999999999999942e-01,3.119999999999999996e-01,3.180000000000000049e-01,3.240000000000000102e-01,3.300000000000000155e-01,3.360000000000000209e-01,3.420000000000000262e-01,3.480000000000000315e-01,3.539999999999999813e-01,3.599999999999999867e-01,3.659999999999999920e-01,3.719999999999999973e-01,3.780000000000000027e-01,3.840000000000000080e-01,3.900000000000000133e-01,3.960000000000000187e-01,4.020000000000000240e-01,4.080000000000000293e-01,4.140000000000000346e-01,4.199999999999999845e-01,4.259999999999999898e-01,4.319999999999999951e-01,4.380000000000000004e-01,4.440000000000000058e-01,4.500000000000000111e-01,4.560000000000000164e-01,4.620000000000000218e-01,4.680000000000000271e-01,4.740000000000000324e-01,4.799999999999999822e-01,4.859999999999999876e-01,4.919999999999999929e-01,4.979999999999999982e-01,5.040000000000000036e-01,5.100000000000000089e-01,5.160000000000000142e-01,5.220000000000000195e-01,5.280000000000000249e-01,5.340000000000000302e-01,5.400000000000000355e-01,5.460000000000000409e-01,5.520000000000000462e-01,5.580000000000000515e-01,5.640000000000000568e-01,5.700000000000000622e-01,5.760000000000000675e-01,5.819999999999999618e-01,5.879999999999999671e-01,5.939999999999999725e-01,5.999999999999999778e-01,6.059999999999999831e-01,6.119999999999999885e-01,6.179999999999999938e-01,6.239999999999999991e-01,6.300000000000000044e-01,6.360000000000000098e-01,6.420000000000000151e-01,6.480000000000000204e-01,6.540000000000000258e-01,6.600000000000000311e-01,6.660000000000000364e-01,6.720000000000000417e-01,6.780000000000000471e-01,6.840000000000000524e-01,6.900000000000000577e-01,6.960000000000000631e-01,7.020000000000000684e-01,7.079999999999999627e-01,7.139999999999999680e-01,7.199999999999999734e-01,7.259999999999999787e-01,7.319999999999999840e-01,7.379999999999999893e-01,7.439999999999999947e-01,7.500000000000000000e-01,7.560000000000000053e-01,7.620000000000000107e-01,7.680000000000000160e-01,7.740000000000000213e-01,7.800000000000000266e-01,7.860000000000000320e-01,7.920000000000000373e-01,7.980000000000000426e-01,8.040000000000000480e-01,8.100000000000000533e-01,8.160000000000000586e-01,8.220000000000000639e-01,8.280000000000000693e-01,8.339999999999999636e-01,8.399999999999999689e-01,8.459999999999999742e-01,8.519999999999999796e-01,8.579999999999999849e-01,8.639999999999999902e-01,8.699999999999999956e-01,8.760000000000000009e-01,8.820000000000000062e-01,8.880000000000000115e-01,8.940000000000000169e-01,9.000000000000000222e-01,9.060000000000000275e-01,9.120000000000000329e-01,9.180000000000000382e-01,9.240000000000000435e-01,9.300000000000000488e-01,9.360000000000000542e-01,9.420000000000000595e-01,9.480000000000000648e-01,9.540000000000000702e-01,9.599999999999999645e-01,9.659999999999999698e-01,9.719999999999999751e-01,9.779999999999999805e-01,9.839999999999999858e-01,9.899999999999999911e-01,9.959999999999999964e-01,1.002000000000000002e+00,1.008000000000000007e+00,1.014000000000000012e+00,1.020000000000000018e+00,1.026000000000000023e+00,1.032000000000000028e+00,1.038000000000000034e+00,1.044000000000000039e+00,1.050000000000000044e+00,1.056000000000000050e+00,1.062000000000000055e+00,1.068000000000000060e+00,1.074000000000000066e+00,1.080000000000000071e+00,1.086000000000000076e+00,1.092000000000000082e+00,1.098000000000000087e+00,1.104000000000000092e+00,1.110000000000000098e+00,1.116000000000000103e+00,1.122000000000000108e+00,1.128000000000000114e+00,1.134000000000000119e+00,1.140000000000000124e+00,1.146000000000000130e+00,1.152000000000000135e+00,1.157999999999999918e+00,1.163999999999999924e+00,1.169999999999999929e+00,1.175999999999999934e+00,1.181999999999999940e+00,1.187999999999999945e+00,1.193999999999999950e+00,1.199999999999999956e+00,1.205999999999999961e+00,1.211999999999999966e+00,1.217999999999999972e+00,1.223999999999999977e+00,1.229999999999999982e+00,1.235999999999999988e+00,1.241999999999999993e+00,1.247999999999999998e+00,1.254000000000000004e+00,1.260000000000000009e+00,1.266000000000000014e+00,1.272000000000000020e+00,1.278000000000000025e+00,1.284000000000000030e+00,1.290000000000000036e+00,1.296000000000000041e+00,1.302000000000000046e+00,1.308000000000000052e+00,1.314000000000000057e+00,1.320000000000000062e+00,1.326000000000000068e+00,1.332000000000000073e+00,1.338000000000000078e+00,1.344000000000000083e+00,1.350000000000000089e+00,1.356000000000000094e+00,1.362000000000000099e+00,1.368000000000000105e+00,1.374000000000000110e+00,1.380000000000000115e+00,1.386000000000000121e+00,1.392000000000000126e+00,1.398000000000000131e+00,1.404000000000000137e+00,1.409999999999999920e+00,1.415999999999999925e+00,1.421999999999999931e+00,1.427999999999999936e+00,1.433999999999999941e+00,1.439999999999999947e+00,1.445999999999999952e+00,1.451999999999999957e+00,1.457999999999999963e+00,1.463999999999999968e+00,1.469999999999999973e+00,1.475999999999999979e+00,1.481999999999999984e+00,1.487999999999999989e+00,1.493999999999999995e+00,1.500000000000000000e+00,1.506000000000000005e+00,1.512000000000000011e+00,1.518000000000000016e+00,1.524000000000000021e+00,1.530000000000000027e+00,1.536000000000000032e+00,1.542000000000000037e+00,1.548000000000000043e+00,1.554000000000000048e+00,1.560000000000000053e+00,1.566000000000000059e+00,1.572000000000000064e+00,1.578000000000000069e+00,1.584000000000000075e+00,1.590000000000000080e+00,1.596000000000000085e+00,1.602000000000000091e+00,1.608000000000000096e+00,1.614000000000000101e+00,1.620000000000000107e+00,1.626000000000000112e+00,1.632000000000000117e+00,1.638000000000000123e+00,1.644000000000000128e+00,1.650000000000000133e+00,1.656000000000000139e+00,1.662000000000000144e+00,1.667999999999999927e+00,1.673999999999999932e+00,1.679999999999999938e+00,1.685999999999999943e+00,1.691999999999999948e+00,1.697999999999999954e+00,1.703999999999999959e+00,1.709999999999999964e+00,1.715999999999999970e+00,1.721999999999999975e+00,1.727999999999999980e+00,1.733999999999999986e+00,1.739999999999999991e+00,1.745999999999999996e+00,1.752000000000000002e+00,1.758000000000000007e+00,1.764000000000000012e+00,1.770000000000000018e+00,1.776000000000000023e+00,1.782000000000000028e+00,1.788000000000000034e+00,1.794000000000000039e+00,1.800000000000000044e+00,1.806000000000000050e+00,1.812000000000000055e+00,1.818000000000000060e+00,1.824000000000000066e+00,1.830000000000000071e+00,1.836000000000000076e+00,1.842000000000000082e+00,1.848000000000000087e+00,1.854000000000000092e+00,1.860000000000000098e+00,1.866000000000000103e+00,1.872000000000000108e+00,1.878000000000000114e+00,1.884000000000000119e+00,1.890000000000000124e+00,1.896000000000000130e+00,1.902000000000000135e+00,1.908000000000000140e+00,1.914000000000000146e+00,1.919999999999999929e+00,1.925999999999999934e+00,1.931999999999999940e+00,1.937999999999999945e+00,1.943999999999999950e+00,1.949999999999999956e+00,1.955999999999999961e+00,1.961999999999999966e+00,1.967999999999999972e+00,1.973999999999999977e+00,1.979999999999999982e+00,1.985999999999999988e+00,1.991999999999999993e+00,1.997999999999999998e+00,2.004000000000000004e+00,2.010000000000000231e+00,2.016000000000000014e+00,2.022000000000000242e+00,2.028000000000000025e+00,2.034000000000000252e+00,2.040000000000000036e+00,2.046000000000000263e+00,2.052000000000000046e+00,2.057999999999999829e+00,2.064000000000000057e+00,2.069999999999999840e+00,2.076000000000000068e+00,2.081999999999999851e+00,2.088000000000000078e+00,2.093999999999999861e+00,2.100000000000000089e+00,2.105999999999999872e+00,2.112000000000000099e+00,2.117999999999999883e+00,2.124000000000000110e+00,2.129999999999999893e+00,2.136000000000000121e+00,2.141999999999999904e+00,2.148000000000000131e+00,2.153999999999999915e+00,2.160000000000000142e+00,2.165999999999999925e+00,2.172000000000000153e+00,2.177999999999999936e+00,2.184000000000000163e+00,2.189999999999999947e+00,2.196000000000000174e+00,2.201999999999999957e+00,2.208000000000000185e+00,2.213999999999999968e+00,2.220000000000000195e+00,2.225999999999999979e+00,2.232000000000000206e+00,2.237999999999999989e+00,2.244000000000000217e+00,2.250000000000000000e+00,2.256000000000000227e+00,2.262000000000000011e+00,2.268000000000000238e+00,2.274000000000000021e+00,2.280000000000000249e+00,2.286000000000000032e+00,2.292000000000000259e+00,2.298000000000000043e+00,2.304000000000000270e+00,2.310000000000000053e+00,2.315999999999999837e+00,2.322000000000000064e+00,2.327999999999999847e+00,2.334000000000000075e+00,2.339999999999999858e+00,2.346000000000000085e+00,2.351999999999999869e+00,2.358000000000000096e+00,2.363999999999999879e+00,2.370000000000000107e+00,2.375999999999999890e+00,2.382000000000000117e+00,2.387999999999999901e+00,2.394000000000000128e+00,2.399999999999999911e+00,2.406000000000000139e+00,2.411999999999999922e+00,2.418000000000000149e+00,2.423999999999999932e+00,2.430000000000000160e+00,2.435999999999999943e+00,2.442000000000000171e+00,2.447999999999999954e+00,2.454000000000000181e+00,2.459999999999999964e+00,2.466000000000000192e+00,2.471999999999999975e+00,2.478000000000000203e+00,2.483999999999999986e+00,2.490000000000000213e+00,2.495999999999999996e+00,2.502000000000000224e+00,2.508000000000000007e+00,2.514000000000000234e+00,2.520000000000000018e+00,2.526000000000000245e+00,2.532000000000000028e+00,2.538000000000000256e+00,2.544000000000000039e+00,2.550000000000000266e+00,2.556000000000000050e+00,2.561999999999999833e+00,2.568000000000000060e+00,2.573999999999999844e+00,2.580000000000000071e+00,2.585999999999999854e+00,2.592000000000000082e+00,2.597999999999999865e+00,2.604000000000000092e+00,2.609999999999999876e+00,2.616000000000000103e+00,2.621999999999999886e+00,2.628000000000000114e+00,2.633999999999999897e+00,2.640000000000000124e+00,2.645999999999999908e+00,2.652000000000000135e+00,2.657999999999999918e+00,2.664000000000000146e+00,2.669999999999999929e+00,2.676000000000000156e+00,2.681999999999999940e+00,2.688000000000000167e+00,2.693999999999999950e+00,2.700000000000000178e+00,2.705999999999999961e+00,2.712000000000000188e+00,2.717999999999999972e+00,2.724000000000000199e+00,2.729999999999999982e+00,2.736000000000000210e+00,2.741999999999999993e+00,2.748000000000000220e+00,2.754000000000000004e+00,2.760000000000000231e+00,2.766000000000000014e+00,2.772000000000000242e+00,2.778000000000000025e+00,2.784000000000000252e+00,2.790000000000000036e+00,2.796000000000000263e+00,2.802000000000000046e+00,2.808000000000000274e+00,2.814000000000000057e+00,2.819999999999999840e+00,2.826000000000000068e+00,2.831999999999999851e+00,2.838000000000000078e+00,2.843999999999999861e+00,2.850000000000000089e+00,2.855999999999999872e+00,2.862000000000000099e+00,2.867999999999999883e+00,2.874000000000000110e+00,2.879999999999999893e+00,2.886000000000000121e+00,2.891999999999999904e+00,2.898000000000000131e+00,2.903999999999999915e+00,2.910000000000000142e+00,2.915999999999999925e+00,2.922000000000000153e+00,2.927999999999999936e+00,2.934000000000000163e+00,2.939999999999999947e+00,2.946000000000000174e+00,2.951999999999999957e+00,2.958000000000000185e+00,2.963999999999999968e+00,2.970000000000000195e+00,2.975999999999999979e+00,2.982000000000000206e+00,2.987999999999999989e+00,2.994000000000000217e+00,3.000000000000000000e+00,3.006000000000000227e+00,3.012000000000000011e+00,3.018000000000000238e+00,3.024000000000000021e+00,3.030000000000000249e+00,3.036000000000000032e+00,3.042000000000000259e+00,3.048000000000000043e+00,3.054000000000000270e+00,3.060000000000000053e+00,3.066000000000000281e+00,3.072000000000000064e+00,3.077999999999999847e+00,3.084000000000000075e+00,3.089999999999999858e+00,3.096000000000000085e+00,3.101999999999999869e+00,3.108000000000000096e+00,3.113999999999999879e+00,3.120000000000000107e+00,3.125999999999999890e+00,3.132000000000000117e+00,3.137999999999999901e+00,3.144000000000000128e+00,3.149999999999999911e+00,3.156000000000000139e+00,3.161999999999999922e+00,3.168000000000000149e+00,3.173999999999999932e+00,3.180000000000000160e+00,3.185999999999999943e+00,3.192000000000000171e+00,3.197999999999999954e+00,3.204000000000000181e+00,3.209999999999999964e+00,3.216000000000000192e+00,3.221999999999999975e+00,3.228000000000000203e+00,3.233999999999999986e+00,3.240000000000000213e+00,3.245999999999999996e+00,3.252000000000000224e+00,3.258000000000000007e+00,3.264000000000000234e+00,3.270000000000000018e+00,3.276000000000000245e+00,3.282000000000000028e+00,3.288000000000000256e+00,3.294000000000000039e+00,3.300000000000000266e+00,3.306000000000000050e+00,3.312000000000000277e+00,3.318000000000000060e+00,3.324000000000000288e+00,3.330000000000000071e+00,3.335999999999999854e+00,3.342000000000000082e+00,3.347999999999999865e+00,3.354000000000000092e+00,3.359999999999999876e+00,3.366000000000000103e+00,3.371999999999999886e+00,3.378000000000000114e+00,3.383999999999999897e+00,3.390000000000000124e+00,3.395999999999999908e+00,3.402000000000000135e+00,3.407999999999999918e+00,3.414000000000000146e+00,3.419999999999999929e+00,3.426000000000000156e+00,3.431999999999999940e+00,3.438000000000000167e+00,3.443999999999999950e+00,3.450000000000000178e+00,3.455999999999999961e+00,3.462000000000000188e+00,3.467999999999999972e+00,3.474000000000000199e+00,3.479999999999999982e+00,3.486000000000000210e+00,3.491999999999999993e+00,3.498000000000000220e+00,3.504000000000000004e+00,3.510000000000000231e+00,3.516000000000000014e+00,3.522000000000000242e+00,3.528000000000000025e+00,3.534000000000000252e+00,3.540000000000000036e+00,3.546000000000000263e+00,3.552000000000000046e+00,3.558000000000000274e+00,3.564000000000000057e+00,3.570000000000000284e+00,3.576000000000000068e+00,3.582000000000000295e+00,3.588000000000000078e+00,3.593999999999999861e+00,3.600000000000000089e+00,3.605999999999999872e+00,3.612000000000000099e+00,3.617999999999999883e+00,3.624000000000000110e+00,3.629999999999999893e+00,3.636000000000000121e+00,3.641999999999999904e+00,3.648000000000000131e+00,3.653999999999999915e+00,3.660000000000000142e+00,3.665999999999999925e+00,3.672000000000000153e+00,3.677999999999999936e+00,3.684000000000000163e+00,3.689999999999999947e+00,3.696000000000000174e+00,3.701999999999999957e+00,3.708000000000000185e+00,3.713999999999999968e+00,3.720000000000000195e+00,3.725999999999999979e+00,3.732000000000000206e+00,3.737999999999999989e+00,3.744000000000000217e+00,3.750000000000000000e+00,3.756000000000000227e+00,3.762000000000000011e+00,3.768000000000000238e+00,3.774000000000000021e+00,3.780000000000000249e+00,3.786000000000000032e+00,3.792000000000000259e+00,3.798000000000000043e+00,3.804000000000000270e+00,3.810000000000000053e+00,3.816000000000000281e+00,3.822000000000000064e+00,3.828000000000000291e+00,3.834000000000000075e+00,3.839999999999999858e+00,3.846000000000000085e+00,3.851999999999999869e+00,3.858000000000000096e+00,3.863999999999999879e+00,3.870000000000000107e+00,3.875999999999999890e+00,3.882000000000000117e+00,3.887999999999999901e+00,3.894000000000000128e+00,3.899999999999999911e+00,3.906000000000000139e+00,3.911999999999999922e+00,3.918000000000000149e+00,3.923999999999999932e+00,3.930000000000000160e+00,3.935999999999999943e+00,3.942000000000000171e+00,3.947999999999999954e+00,3.954000000000000181e+00,3.959999999999999964e+00,3.966000000000000192e+00,3.971999999999999975e+00,3.978000000000000203e+00,3.983999999999999986e+00,3.990000000000000213e+00,3.995999999999999996e+00,4.001999999999999780e+00,4.008000000000000007e+00,4.014000000000000234e+00,4.020000000000000462e+00,4.025999999999999801e+00,4.032000000000000028e+00,4.038000000000000256e+00,4.044000000000000483e+00,4.049999999999999822e+00,4.056000000000000050e+00,4.062000000000000277e+00,4.068000000000000504e+00,4.073999999999999844e+00,4.080000000000000071e+00,4.086000000000000298e+00,4.092000000000000526e+00,4.097999999999999865e+00,4.104000000000000092e+00,4.110000000000000320e+00,4.115999999999999659e+00,4.121999999999999886e+00,4.128000000000000114e+00,4.134000000000000341e+00,4.139999999999999680e+00,4.145999999999999908e+00,4.152000000000000135e+00,4.158000000000000362e+00,4.163999999999999702e+00,4.169999999999999929e+00,4.176000000000000156e+00,4.182000000000000384e+00,4.187999999999999723e+00,4.193999999999999950e+00,4.200000000000000178e+00,4.206000000000000405e+00,4.211999999999999744e+00,4.217999999999999972e+00,4.224000000000000199e+00,4.230000000000000426e+00,4.235999999999999766e+00,4.241999999999999993e+00,4.248000000000000220e+00,4.254000000000000448e+00,4.259999999999999787e+00,4.266000000000000014e+00,4.272000000000000242e+00,4.278000000000000469e+00,4.283999999999999808e+00,4.290000000000000036e+00,4.296000000000000263e+00,4.302000000000000490e+00,4.307999999999999829e+00,4.314000000000000057e+00,4.320000000000000284e+00,4.326000000000000512e+00,4.331999999999999851e+00,4.338000000000000078e+00,4.344000000000000306e+00,4.350000000000000533e+00,4.355999999999999872e+00,4.362000000000000099e+00,4.368000000000000327e+00,4.373999999999999666e+00,4.379999999999999893e+00,4.386000000000000121e+00,4.392000000000000348e+00,4.397999999999999687e+00,4.403999999999999915e+00,4.410000000000000142e+00,4.416000000000000369e+00,4.421999999999999709e+00,4.427999999999999936e+00,4.434000000000000163e+00,4.440000000000000391e+00,4.445999999999999730e+00,4.451999999999999957e+00,4.458000000000000185e+00,4.464000000000000412e+00,4.469999999999999751e+00,4.475999999999999979e+00,4.482000000000000206e+00,4.488000000000000433e+00,4.493999999999999773e+00,4.500000000000000000e+00,4.506000000000000227e+00,4.512000000000000455e+00,4.517999999999999794e+00,4.524000000000000021e+00,4.530000000000000249e+00,4.536000000000000476e+00,4.541999999999999815e+00,4.548000000000000043e+00,4.554000000000000270e+00,4.560000000000000497e+00,4.565999999999999837e+00,4.572000000000000064e+00,4.578000000000000291e+00,4.584000000000000519e+00,4.589999999999999858e+00,4.596000000000000085e+00,4.602000000000000313e+00,4.608000000000000540e+00,4.613999999999999879e+00,4.620000000000000107e+00,4.626000000000000334e+00,4.631999999999999673e+00,4.637999999999999901e+00,4.644000000000000128e+00,4.650000000000000355e+00,4.655999999999999694e+00,4.661999999999999922e+00,4.668000000000000149e+00,4.674000000000000377e+00,4.679999999999999716e+00,4.685999999999999943e+00,4.692000000000000171e+00,4.698000000000000398e+00,4.703999999999999737e+00,4.709999999999999964e+00,4.716000000000000192e+00,4.722000000000000419e+00,4.727999999999999758e+00,4.733999999999999986e+00,4.740000000000000213e+00,4.746000000000000441e+00,4.751999999999999780e+00,4.758000000000000007e+00,4.764000000000000234e+00,4.770000000000000462e+00,4.775999999999999801e+00,4.782000000000000028e+00,4.788000000000000256e+00,4.794000000000000483e+00,4.799999999999999822e+00,4.806000000000000050e+00,4.812000000000000277e+00,4.818000000000000504e+00,4.823999999999999844e+00,4.830000000000000071e+00,4.836000000000000298e+00,4.842000000000000526e+00,4.847999999999999865e+00,4.854000000000000092e+00,4.860000000000000320e+00,4.865999999999999659e+00,4.871999999999999886e+00,4.878000000000000114e+00,4.884000000000000341e+00,4.889999999999999680e+00,4.895999999999999908e+00,4.902000000000000135e+00,4.908000000000000362e+00,4.913999999999999702e+00,4.919999999999999929e+00,4.926000000000000156e+00,4.932000000000000384e+00,4.937999999999999723e+00,4.943999999999999950e+00,4.950000000000000178e+00,4.956000000000000405e+00,4.961999999999999744e+00,4.967999999999999972e+00,4.974000000000000199e+00,4.980000000000000426e+00,4.985999999999999766e+00,4.991999999999999993e+00,4.998000000000000220e+00,5.004000000000000448e+00,5.009999999999999787e+00,5.016000000000000014e+00,5.022000000000000242e+00,5.028000000000000469e+00,5.033999999999999808e+00,5.040000000000000036e+00,5.046000000000000263e+00,5.052000000000000490e+00,5.057999999999999829e+00,5.064000000000000057e+00,5.070000000000000284e+00,5.076000000000000512e+00,5.081999999999999851e+00,5.088000000000000078e+00,5.094000000000000306e+00,5.100000000000000533e+00,5.105999999999999872e+00,5.112000000000000099e+00,5.118000000000000327e+00,5.123999999999999666e+00,5.129999999999999893e+00,5.136000000000000121e+00,5.142000000000000348e+00,5.147999999999999687e+00,5.153999999999999915e+00,5.160000000000000142e+00,5.166000000000000369e+00,5.171999999999999709e+00,5.177999999999999936e+00,5.184000000000000163e+00,5.190000000000000391e+00,5.195999999999999730e+00,5.201999999999999957e+00,5.208000000000000185e+00,5.214000000000000412e+00,5.219999999999999751e+00,5.225999999999999979e+00,5.232000000000000206e+00,5.238000000000000433e+00,5.243999999999999773e+00,5.250000000000000000e+00,5.256000000000000227e+00,5.262000000000000455e+00,5.267999999999999794e+00,5.274000000000000021e+00,5.280000000000000249e+00,5.286000000000000476e+00,5.291999999999999815e+00,5.298000000000000043e+00,5.304000000000000270e+00,5.310000000000000497e+00,5.315999999999999837e+00,5.322000000000000064e+00,5.328000000000000291e+00,5.334000000000000519e+00,5.339999999999999858e+00,5.346000000000000085e+00,5.352000000000000313e+00,5.358000000000000540e+00,5.363999999999999879e+00,5.370000000000000107e+00,5.376000000000000334e+00,5.381999999999999673e+00,5.387999999999999901e+00,5.394000000000000128e+00,5.400000000000000355e+00,5.405999999999999694e+00,5.411999999999999922e+00,5.418000000000000149e+00,5.424000000000000377e+00,5.429999999999999716e+00,5.435999999999999943e+00,5.442000000000000171e+00,5.448000000000000398e+00,5.453999999999999737e+00,5.459999999999999964e+00,5.466000000000000192e+00,5.472000000000000419e+00,5.477999999999999758e+00,5.483999999999999986e+00,5.490000000000000213e+00,5.496000000000000441e+00,5.501999999999999780e+00,5.508000000000000007e+00,5.514000000000000234e+00,5.520000000000000462e+00,5.525999999999999801e+00,5.532000000000000028e+00,5.538000000000000256e+00,5.544000000000000483e+00,5.549999999999999822e+00,5.556000000000000050e+00,5.562000000000000277e+00,5.568000000000000504e+00,5.573999999999999844e+00,5.580000000000000071e+00,5.586000000000000298e+00,5.592000000000000526e+00,5.597999999999999865e+00,5.604000000000000092e+00,5.610000000000000320e+00,5.616000000000000547e+00,5.621999999999999886e+00,5.628000000000000114e+00,5.634000000000000341e+00,5.639999999999999680e+00,5.645999999999999908e+00,5.652000000000000135e+00,5.658000000000000362e+00,5.663999999999999702e+00,5.669999999999999929e+00,5.676000000000000156e+00,5.682000000000000384e+00,5.687999999999999723e+00,5.693999999999999950e+00,5.700000000000000178e+00,5.706000000000000405e+00,5.711999999999999744e+00,5.717999999999999972e+00,5.724000000000000199e+00,5.730000000000000426e+00,5.735999999999999766e+00,5.741999999999999993e+00,5.748000000000000220e+00,5.754000000000000448e+00,5.759999999999999787e+00,5.766000000000000014e+00,5.772000000000000242e+00,5.778000000000000469e+00,5.783999999999999808e+00,5.790000000000000036e+00,5.796000000000000263e+00,5.802000000000000490e+00,5.807999999999999829e+00,5.814000000000000057e+00,5.820000000000000284e+00,5.826000000000000512e+00,5.831999999999999851e+00,5.838000000000000078e+00,5.844000000000000306e+00,5.850000000000000533e+00,5.855999999999999872e+00,5.862000000000000099e+00,5.868000000000000327e+00,5.874000000000000554e+00,5.879999999999999893e+00,5.886000000000000121e+00,5.892000000000000348e+00,5.897999999999999687e+00,5.903999999999999915e+00,5.910000000000000142e+00,5.916000000000000369e+00,5.921999999999999709e+00,5.927999999999999936e+00,5.934000000000000163e+00,5.940000000000000391e+00,5.945999999999999730e+00,5.951999999999999957e+00,5.958000000000000185e+00,5.964000000000000412e+00,5.969999999999999751e+00,5.975999999999999979e+00,5.982000000000000206e+00,5.988000000000000433e+00,5.993999999999999773e+00,6.000000000000000000e+00,6.006000000000000227e+00,6.012000000000000455e+00,6.017999999999999794e+00,6.024000000000000021e+00,6.030000000000000249e+00,6.036000000000000476e+00,6.041999999999999815e+00,6.048000000000000043e+00,6.054000000000000270e+00,6.060000000000000497e+00,6.065999999999999837e+00,6.072000000000000064e+00,6.078000000000000291e+00,6.084000000000000519e+00,6.089999999999999858e+00,6.096000000000000085e+00,6.102000000000000313e+00,6.108000000000000540e+00,6.113999999999999879e+00,6.120000000000000107e+00,6.126000000000000334e+00,6.132000000000000561e+00,6.137999999999999901e+00,6.144000000000000128e+00,6.150000000000000355e+00,6.155999999999999694e+00,6.161999999999999922e+00,6.168000000000000149e+00,6.174000000000000377e+00,6.179999999999999716e+00,6.185999999999999943e+00,6.192000000000000171e+00,6.198000000000000398e+00,6.203999999999999737e+00,6.209999999999999964e+00,6.216000000000000192e+00,6.222000000000000419e+00,6.227999999999999758e+00,6.233999999999999986e+00,6.240000000000000213e+00,6.246000000000000441e+00,6.251999999999999780e+00,6.258000000000000007e+00,6.264000000000000234e+00,6.270000000000000462e+00,6.275999999999999801e+00,6.282000000000000028e+00,6.288000000000000256e+00,6.294000000000000483e+00,6.299999999999999822e+00,6.306000000000000050e+00,6.312000000000000277e+00,6.318000000000000504e+00,6.323999999999999844e+00,6.330000000000000071e+00,6.336000000000000298e+00,6.342000000000000526e+00,6.347999999999999865e+00,6.354000000000000092e+00,6.360000000000000320e+00,6.366000000000000547e+00,6.371999999999999886e+00,6.378000000000000114e+00,6.384000000000000341e+00,6.390000000000000568e+00,6.395999999999999908e+00,6.402000000000000135e+00,6.408000000000000362e+00,6.413999999999999702e+00,6.419999999999999929e+00,6.426000000000000156e+00,6.432000000000000384e+00,6.437999999999999723e+00,6.443999999999999950e+00,6.450000000000000178e+00,6.456000000000000405e+00,6.461999999999999744e+00,6.467999999999999972e+00,6.474000000000000199e+00,6.480000000000000426e+00,6.485999999999999766e+00,6.491999999999999993e+00,6.498000000000000220e+00,6.504000000000000448e+00,6.509999999999999787e+00,6.516000000000000014e+00,6.522000000000000242e+00,6.528000000000000469e+00,6.533999999999999808e+00,6.540000000000000036e+00,6.546000000000000263e+00,6.552000000000000490e+00,6.557999999999999829e+00,6.564000000000000057e+00,6.570000000000000284e+00,6.576000000000000512e+00,6.581999999999999851e+00,6.588000000000000078e+00,6.594000000000000306e+00,6.600000000000000533e+00,6.605999999999999872e+00,6.612000000000000099e+00,6.618000000000000327e+00,6.624000000000000554e+00,6.629999999999999893e+00,6.636000000000000121e+00,6.642000000000000348e+00,6.648000000000000576e+00,6.653999999999999915e+00,6.660000000000000142e+00,6.666000000000000369e+00,6.671999999999999709e+00,6.677999999999999936e+00,6.684000000000000163e+00,6.690000000000000391e+00,6.695999999999999730e+00,6.701999999999999957e+00,6.708000000000000185e+00,6.714000000000000412e+00,6.719999999999999751e+00,6.725999999999999979e+00,6.732000000000000206e+00,6.738000000000000433e+00,6.743999999999999773e+00,6.750000000000000000e+00,6.756000000000000227e+00,6.762000000000000455e+00,6.767999999999999794e+00,6.774000000000000021e+00,6.780000000000000249e+00,6.786000000000000476e+00,6.791999999999999815e+00,6.798000000000000043e+00,6.804000000000000270e+00,6.810000000000000497e+00,6.815999999999999837e+00,6.822000000000000064e+00,6.828000000000000291e+00,6.834000000000000519e+00,6.839999999999999858e+00,6.846000000000000085e+00,6.852000000000000313e+00,6.858000000000000540e+00,6.863999999999999879e+00,6.870000000000000107e+00,6.876000000000000334e+00,6.882000000000000561e+00,6.887999999999999901e+00,6.894000000000000128e+00,6.900000000000000355e+00,6.906000000000000583e+00,6.911999999999999922e+00,6.918000000000000149e+00,6.924000000000000377e+00,6.929999999999999716e+00,6.935999999999999943e+00,6.942000000000000171e+00,6.948000000000000398e+00,6.953999999999999737e+00,6.959999999999999964e+00,6.966000000000000192e+00,6.972000000000000419e+00,6.977999999999999758e+00,6.983999999999999986e+00,6.990000000000000213e+00,6.996000000000000441e+00,7.001999999999999780e+00,7.008000000000000007e+00,7.014000000000000234e+00,7.020000000000000462e+00,7.025999999999999801e+00,7.032000000000000028e+00,7.038000000000000256e+00,7.044000000000000483e+00,7.049999999999999822e+00,7.056000000000000050e+00,7.062000000000000277e+00,7.068000000000000504e+00,7.073999999999999844e+00,7.080000000000000071e+00,7.086000000000000298e+00,7.092000000000000526e+00,7.097999999999999865e+00,7.104000000000000092e+00,7.110000000000000320e+00,7.116000000000000547e+00,7.121999999999999886e+00,7.128000000000000114e+00,7.134000000000000341e+00,7.140000000000000568e+00,7.145999999999999908e+00,7.152000000000000135e+00,7.158000000000000362e+00,7.164000000000000590e+00,7.169999999999999929e+00,7.176000000000000156e+00,7.182000000000000384e+00,7.187999999999999723e+00,7.193999999999999950e+00,7.200000000000000178e+00,7.206000000000000405e+00,7.211999999999999744e+00,7.217999999999999972e+00,7.224000000000000199e+00,7.230000000000000426e+00,7.235999999999999766e+00,7.241999999999999993e+00,7.248000000000000220e+00,7.254000000000000448e+00,7.259999999999999787e+00,7.266000000000000014e+00,7.272000000000000242e+00,7.278000000000000469e+00,7.283999999999999808e+00,7.290000000000000036e+00,7.296000000000000263e+00,7.302000000000000490e+00,7.307999999999999829e+00,7.314000000000000057e+00,7.320000000000000284e+00,7.326000000000000512e+00,7.331999999999999851e+00,7.338000000000000078e+00,7.344000000000000306e+00,7.350000000000000533e+00,7.355999999999999872e+00,7.362000000000000099e+00,7.368000000000000327e+00,7.374000000000000554e+00,7.379999999999999893e+00,7.386000000000000121e+00,7.392000000000000348e+00,7.398000000000000576e+00,7.403999999999999915e+00,7.410000000000000142e+00,7.416000000000000369e+00,7.422000000000000597e+00,7.427999999999999936e+00,7.434000000000000163e+00,7.440000000000000391e+00,7.445999999999999730e+00,7.451999999999999957e+00,7.458000000000000185e+00,7.464000000000000412e+00,7.469999999999999751e+00,7.475999999999999979e+00,7.482000000000000206e+00,7.488000000000000433e+00,7.493999999999999773e+00,7.500000000000000000e+00,7.506000000000000227e+00,7.512000000000000455e+00,7.517999999999999794e+00,7.524000000000000021e+00,7.530000000000000249e+00,7.536000000000000476e+00,7.541999999999999815e+00,7.548000000000000043e+00,7.554000000000000270e+00,7.560000000000000497e+00,7.565999999999999837e+00,7.572000000000000064e+00,7.578000000000000291e+00,7.584000000000000519e+00,7.589999999999999858e+00,7.596000000000000085e+00,7.602000000000000313e+00,7.608000000000000540e+00,7.613999999999999879e+00,7.620000000000000107e+00,7.626000000000000334e+00,7.632000000000000561e+00,7.637999999999999901e+00,7.644000000000000128e+00,7.650000000000000355e+00,7.656000000000000583e+00,7.661999999999999922e+00,7.668000000000000149e+00,7.674000000000000377e+00,7.679999999999999716e+00,7.685999999999999943e+00,7.692000000000000171e+00,7.698000000000000398e+00,7.703999999999999737e+00,7.709999999999999964e+00,7.716000000000000192e+00,7.722000000000000419e+00,7.727999999999999758e+00,7.733999999999999986e+00,7.740000000000000213e+00,7.746000000000000441e+00,7.751999999999999780e+00,7.758000000000000007e+00,7.764000000000000234e+00,7.770000000000000462e+00,7.775999999999999801e+00,7.782000000000000028e+00,7.788000000000000256e+00,7.794000000000000483e+00,7.799999999999999822e+00,7.806000000000000050e+00,7.812000000000000277e+00,7.818000000000000504e+00,7.823999999999999844e+00,7.830000000000000071e+00,7.836000000000000298e+00,7.842000000000000526e+00,7.847999999999999865e+00,7.854000000000000092e+00,7.860000000000000320e+00,7.866000000000000547e+00,7.871999999999999886e+00,7.878000000000000114e+00,7.884000000000000341e+00,7.890000000000000568e+00,7.895999999999999908e+00,7.902000000000000135e+00,7.908000000000000362e+00,7.914000000000000590e+00,7.919999999999999929e+00,7.926000000000000156e+00,7.932000000000000384e+00,7.937999999999999723e+00,7.943999999999999950e+00,7.950000000000000178e+00,7.956000000000000405e+00,7.961999999999999744e+00,7.967999999999999972e+00,7.974000000000000199e+00,7.980000000000000426e+00,7.985999999999999766e+00,7.991999999999999993e+00,7.998000000000000220e+00,8.003999999999999559e+00,8.009999999999999787e+00,8.016000000000000014e+00,8.022000000000000242e+00,8.028000000000000469e+00,8.034000000000000696e+00,8.040000000000000924e+00,8.045999999999999375e+00,8.051999999999999602e+00,8.057999999999999829e+00,8.064000000000000057e+00,8.070000000000000284e+00,8.076000000000000512e+00,8.082000000000000739e+00,8.088000000000000966e+00,8.093999999999999417e+00,8.099999999999999645e+00,8.105999999999999872e+00,8.112000000000000099e+00,8.118000000000000327e+00,8.124000000000000554e+00,8.130000000000000782e+00,8.136000000000001009e+00,8.141999999999999460e+00,8.147999999999999687e+00,8.153999999999999915e+00,8.160000000000000142e+00,8.166000000000000369e+00,8.172000000000000597e+00,8.178000000000000824e+00,8.184000000000001052e+00,8.189999999999999503e+00,8.195999999999999730e+00,8.201999999999999957e+00,8.208000000000000185e+00,8.214000000000000412e+00,8.220000000000000639e+00,8.226000000000000867e+00,8.231999999999999318e+00,8.237999999999999545e+00,8.243999999999999773e+00,8.250000000000000000e+00,8.256000000000000227e+00,8.262000000000000455e+00,8.268000000000000682e+00,8.274000000000000909e+00,8.279999999999999361e+00,8.285999999999999588e+00,8.291999999999999815e+00,8.298000000000000043e+00,8.304000000000000270e+00,8.310000000000000497e+00,8.316000000000000725e+00,8.322000000000000952e+00,8.327999999999999403e+00,8.333999999999999631e+00,8.339999999999999858e+00,8.346000000000000085e+00,8.352000000000000313e+00,8.358000000000000540e+00,8.364000000000000767e+00,8.370000000000000995e+00,8.375999999999999446e+00,8.381999999999999673e+00,8.387999999999999901e+00,8.394000000000000128e+00,8.400000000000000355e+00,8.406000000000000583e+00,8.412000000000000810e+00,8.418000000000001037e+00,8.423999999999999488e+00,8.429999999999999716e+00,8.435999999999999943e+00,8.442000000000000171e+00,8.448000000000000398e+00,8.454000000000000625e+00,8.460000000000000853e+00,8.465999999999999304e+00,8.471999999999999531e+00,8.477999999999999758e+00,8.483999999999999986e+00,8.490000000000000213e+00,8.496000000000000441e+00,8.502000000000000668e+00,8.508000000000000895e+00,8.513999999999999346e+00,8.519999999999999574e+00,8.525999999999999801e+00,8.532000000000000028e+00,8.538000000000000256e+00,8.544000000000000483e+00,8.550000000000000711e+00,8.556000000000000938e+00,8.561999999999999389e+00,8.567999999999999616e+00,8.573999999999999844e+00,8.580000000000000071e+00,8.586000000000000298e+00,8.592000000000000526e+00,8.598000000000000753e+00,8.604000000000000981e+00,8.609999999999999432e+00,8.615999999999999659e+00,8.621999999999999886e+00,8.628000000000000114e+00,8.634000000000000341e+00,8.640000000000000568e+00,8.646000000000000796e+00,8.652000000000001023e+00,8.657999999999999474e+00,8.663999999999999702e+00,8.669999999999999929e+00,8.676000000000000156e+00,8.682000000000000384e+00,8.688000000000000611e+00,8.694000000000000838e+00,8.700000000000001066e+00,8.705999999999999517e+00,8.711999999999999744e+00,8.717999999999999972e+00,8.724000000000000199e+00,8.730000000000000426e+00,8.736000000000000654e+00,8.742000000000000881e+00,8.747999999999999332e+00,8.753999999999999559e+00,8.759999999999999787e+00,8.766000000000000014e+00,8.772000000000000242e+00,8.778000000000000469e+00,8.784000000000000696e+00,8.790000000000000924e+00,8.795999999999999375e+00,8.801999999999999602e+00,8.807999999999999829e+00,8.814000000000000057e+00,8.820000000000000284e+00,8.826000000000000512e+00,8.832000000000000739e+00,8.838000000000000966e+00,8.843999999999999417e+00,8.849999999999999645e+00,8.855999999999999872e+00,8.862000000000000099e+00,8.868000000000000327e+00,8.874000000000000554e+00,8.880000000000000782e+00,8.886000000000001009e+00,8.891999999999999460e+00,8.897999999999999687e+00,8.903999999999999915e+00,8.910000000000000142e+00,8.916000000000000369e+00,8.922000000000000597e+00,8.928000000000000824e+00,8.934000000000001052e+00,8.939999999999999503e+00,8.945999999999999730e+00,8.951999999999999957e+00,8.958000000000000185e+00,8.964000000000000412e+00,8.970000000000000639e+00,8.976000000000000867e+00,8.981999999999999318e+00,8.987999999999999545e+00,8.993999999999999773e+00,9.000000000000000000e+00,9.006000000000000227e+00,9.012000000000000455e+00,9.018000000000000682e+00,9.024000000000000909e+00,9.029999999999999361e+00,9.035999999999999588e+00,9.041999999999999815e+00,9.048000000000000043e+00,9.054000000000000270e+00,9.060000000000000497e+00,9.066000000000000725e+00,9.072000000000000952e+00,9.077999999999999403e+00,9.083999999999999631e+00,9.089999999999999858e+00,9.096000000000000085e+00,9.102000000000000313e+00,9.108000000000000540e+00,9.114000000000000767e+00,9.120000000000000995e+00,9.125999999999999446e+00,9.131999999999999673e+00,9.137999999999999901e+00,9.144000000000000128e+00,9.150000000000000355e+00,9.156000000000000583e+00,9.162000000000000810e+00,9.168000000000001037e+00,9.173999999999999488e+00,9.179999999999999716e+00,9.185999999999999943e+00,9.192000000000000171e+00,9.198000000000000398e+00,9.204000000000000625e+00,9.210000000000000853e+00,9.216000000000001080e+00,9.221999999999999531e+00,9.227999999999999758e+00,9.233999999999999986e+00,9.240000000000000213e+00,9.246000000000000441e+00,9.252000000000000668e+00,9.258000000000000895e+00,9.263999999999999346e+00,9.269999999999999574e+00,9.275999999999999801e+00,9.282000000000000028e+00,9.288000000000000256e+00,9.294000000000000483e+00,9.300000000000000711e+00,9.306000000000000938e+00,9.311999999999999389e+00,9.317999999999999616e+00,9.323999999999999844e+00,9.330000000000000071e+00,9.336000000000000298e+00,9.342000000000000526e+00,9.348000000000000753e+00,9.354000000000000981e+00,9.359999999999999432e+00,9.365999999999999659e+00,9.371999999999999886e+00,9.378000000000000114e+00,9.384000000000000341e+00,9.390000000000000568e+00,9.396000000000000796e+00,9.402000000000001023e+00,9.407999999999999474e+00,9.413999999999999702e+00,9.419999999999999929e+00,9.426000000000000156e+00,9.432000000000000384e+00,9.438000000000000611e+00,9.444000000000000838e+00,9.450000000000001066e+00,9.455999999999999517e+00,9.461999999999999744e+00,9.467999999999999972e+00,9.474000000000000199e+00,9.480000000000000426e+00,9.486000000000000654e+00,9.492000000000000881e+00,9.497999999999999332e+00,9.503999999999999559e+00,9.509999999999999787e+00,9.516000000000000014e+00,9.522000000000000242e+00,9.528000000000000469e+00,9.534000000000000696e+00,9.540000000000000924e+00,9.545999999999999375e+00,9.551999999999999602e+00,9.557999999999999829e+00,9.564000000000000057e+00,9.570000000000000284e+00,9.576000000000000512e+00,9.582000000000000739e+00,9.588000000000000966e+00,9.593999999999999417e+00,9.599999999999999645e+00,9.605999999999999872e+00,9.612000000000000099e+00,9.618000000000000327e+00,9.624000000000000554e+00,9.630000000000000782e+00,9.636000000000001009e+00,9.641999999999999460e+00,9.647999999999999687e+00,9.653999999999999915e+00,9.660000000000000142e+00,9.666000000000000369e+00,9.672000000000000597e+00,9.678000000000000824e+00,9.684000000000001052e+00,9.689999999999999503e+00,9.695999999999999730e+00,9.701999999999999957e+00,9.708000000000000185e+00,9.714000000000000412e+00,9.720000000000000639e+00,9.726000000000000867e+00,9.731999999999999318e+00,9.737999999999999545e+00,9.743999999999999773e+00,9.750000000000000000e+00,9.756000000000000227e+00,9.762000000000000455e+00,9.768000000000000682e+00,9.774000000000000909e+00,9.779999999999999361e+00,9.785999999999999588e+00,9.791999999999999815e+00,9.798000000000000043e+00,9.804000000000000270e+00,9.810000000000000497e+00,9.816000000000000725e+00,9.822000000000000952e+00,9.827999999999999403e+00,9.833999999999999631e+00,9.839999999999999858e+00,9.846000000000000085e+00,9.852000000000000313e+00,9.858000000000000540e+00,9.864000000000000767e+00,9.870000000000000995e+00,9.875999999999999446e+00,9.881999999999999673e+00,9.887999999999999901e+00,9.894000000000000128e+00,9.900000000000000355e+00,9.906000000000000583e+00,9.912000000000000810e+00,9.918000000000001037e+00,9.923999999999999488e+00,9.929999999999999716e+00,9.935999999999999943e+00,9.942000000000000171e+00,9.948000000000000398e+00,9.954000000000000625e+00,9.960000000000000853e+00,9.966000000000001080e+00,9.971999999999999531e+00,9.977999999999999758e+00,9.983999999999999986e+00,9.990000000000000213e+00,9.996000000000000441e+00,1.000200000000000067e+01,1.000800000000000090e+01,1.001399999999999935e+01,1.001999999999999957e+01,1.002599999999999980e+01,1.003200000000000003e+01,1.003800000000000026e+01,1.004400000000000048e+01,1.005000000000000071e+01,1.005600000000000094e+01,1.006199999999999939e+01,1.006799999999999962e+01,1.007399999999999984e+01,1.008000000000000007e+01,1.008600000000000030e+01,1.009200000000000053e+01,1.009800000000000075e+01,1.010400000000000098e+01,1.010999999999999943e+01,1.011599999999999966e+01,1.012199999999999989e+01,1.012800000000000011e+01,1.013400000000000034e+01,1.014000000000000057e+01,1.014600000000000080e+01,1.015200000000000102e+01,1.015799999999999947e+01,1.016399999999999970e+01,1.016999999999999993e+01,1.017600000000000016e+01,1.018200000000000038e+01,1.018800000000000061e+01,1.019400000000000084e+01,1.020000000000000107e+01,1.020599999999999952e+01,1.021199999999999974e+01,1.021799999999999997e+01,1.022400000000000020e+01,1.023000000000000043e+01,1.023600000000000065e+01,1.024200000000000088e+01,1.024799999999999933e+01,1.025399999999999956e+01,1.025999999999999979e+01,1.026600000000000001e+01,1.027200000000000024e+01,1.027800000000000047e+01,1.028400000000000070e+01,1.029000000000000092e+01,1.029599999999999937e+01,1.030199999999999960e+01,1.030799999999999983e+01,1.031400000000000006e+01,1.032000000000000028e+01,1.032600000000000051e+01,1.033200000000000074e+01,1.033800000000000097e+01,1.034399999999999942e+01,1.034999999999999964e+01,1.035599999999999987e+01,1.036200000000000010e+01,1.036800000000000033e+01,1.037400000000000055e+01,1.038000000000000078e+01,1.038600000000000101e+01,1.039199999999999946e+01,1.039799999999999969e+01,1.040399999999999991e+01,1.041000000000000014e+01,1.041600000000000037e+01,1.042200000000000060e+01,1.042800000000000082e+01,1.043400000000000105e+01,1.043999999999999950e+01,1.044599999999999973e+01,1.045199999999999996e+01,1.045800000000000018e+01,1.046400000000000041e+01,1.047000000000000064e+01,1.047600000000000087e+01,1.048200000000000109e+01,1.048799999999999955e+01,1.049399999999999977e+01,1.050000000000000000e+01,1.050600000000000023e+01,1.051200000000000045e+01,1.051800000000000068e+01,1.052400000000000091e+01,1.052999999999999936e+01,1.053599999999999959e+01,1.054199999999999982e+01,1.054800000000000004e+01,1.055400000000000027e+01,1.056000000000000050e+01,1.056600000000000072e+01,1.057200000000000095e+01,1.057799999999999940e+01,1.058399999999999963e+01,1.058999999999999986e+01,1.059600000000000009e+01,1.060200000000000031e+01,1.060800000000000054e+01,1.061400000000000077e+01,1.062000000000000099e+01,1.062599999999999945e+01,1.063199999999999967e+01,1.063799999999999990e+01,1.064400000000000013e+01,1.065000000000000036e+01,1.065600000000000058e+01,1.066200000000000081e+01,1.066800000000000104e+01,1.067399999999999949e+01,1.067999999999999972e+01,1.068599999999999994e+01,1.069200000000000017e+01,1.069800000000000040e+01,1.070400000000000063e+01,1.071000000000000085e+01,1.071600000000000108e+01,1.072199999999999953e+01,1.072799999999999976e+01,1.073399999999999999e+01,1.074000000000000021e+01,1.074600000000000044e+01,1.075200000000000067e+01,1.075800000000000090e+01,1.076399999999999935e+01,1.076999999999999957e+01,1.077599999999999980e+01,1.078200000000000003e+01,1.078800000000000026e+01,1.079400000000000048e+01,1.080000000000000071e+01,1.080600000000000094e+01,1.081199999999999939e+01,1.081799999999999962e+01,1.082399999999999984e+01,1.083000000000000007e+01,1.083600000000000030e+01,1.084200000000000053e+01,1.084800000000000075e+01,1.085400000000000098e+01,1.085999999999999943e+01,1.086599999999999966e+01,1.087199999999999989e+01,1.087800000000000011e+01,1.088400000000000034e+01,1.089000000000000057e+01,1.089600000000000080e+01,1.090200000000000102e+01,1.090799999999999947e+01,1.091399999999999970e+01,1.091999999999999993e+01,1.092600000000000016e+01,1.093200000000000038e+01,1.093800000000000061e+01,1.094400000000000084e+01,1.095000000000000107e+01,1.095599999999999952e+01,1.096199999999999974e+01,1.096799999999999997e+01,1.097400000000000020e+01,1.098000000000000043e+01,1.098600000000000065e+01,1.099200000000000088e+01,1.099800000000000111e+01,1.100399999999999956e+01,1.100999999999999979e+01,1.101600000000000001e+01,1.102200000000000024e+01,1.102800000000000047e+01,1.103400000000000070e+01,1.104000000000000092e+01,1.104599999999999937e+01,1.105199999999999960e+01,1.105799999999999983e+01,1.106400000000000006e+01,1.107000000000000028e+01,1.107600000000000051e+01,1.108200000000000074e+01,1.108800000000000097e+01,1.109399999999999942e+01,1.109999999999999964e+01,1.110599999999999987e+01,1.111200000000000010e+01,1.111800000000000033e+01,1.112400000000000055e+01,1.113000000000000078e+01,1.113600000000000101e+01,1.114199999999999946e+01,1.114799999999999969e+01,1.115399999999999991e+01,1.116000000000000014e+01,1.116600000000000037e+01,1.117200000000000060e+01,1.117800000000000082e+01,1.118400000000000105e+01,1.118999999999999950e+01,1.119599999999999973e+01,1.120199999999999996e+01,1.120800000000000018e+01,1.121400000000000041e+01,1.122000000000000064e+01,1.122600000000000087e+01,1.123200000000000109e+01,1.123799999999999955e+01,1.124399999999999977e+01,1.125000000000000000e+01,1.125600000000000023e+01,1.126200000000000045e+01,1.126800000000000068e+01,1.127400000000000091e+01,1.127999999999999936e+01,1.128599999999999959e+01,1.129199999999999982e+01,1.129800000000000004e+01,1.130400000000000027e+01,1.131000000000000050e+01,1.131600000000000072e+01,1.132200000000000095e+01,1.132799999999999940e+01,1.133399999999999963e+01,1.133999999999999986e+01,1.134600000000000009e+01,1.135200000000000031e+01,1.135800000000000054e+01,1.136400000000000077e+01,1.137000000000000099e+01,1.137599999999999945e+01,1.138199999999999967e+01,1.138799999999999990e+01,1.139400000000000013e+01,1.140000000000000036e+01,1.140600000000000058e+01,1.141200000000000081e+01,1.141800000000000104e+01,1.142399999999999949e+01,1.142999999999999972e+01,1.143599999999999994e+01,1.144200000000000017e+01,1.144800000000000040e+01,1.145400000000000063e+01,1.146000000000000085e+01,1.146600000000000108e+01,1.147199999999999953e+01,1.147799999999999976e+01,1.148399999999999999e+01,1.149000000000000021e+01,1.149600000000000044e+01,1.150200000000000067e+01,1.150800000000000090e+01,1.151400000000000112e+01,1.151999999999999957e+01,1.152599999999999980e+01,1.153200000000000003e+01,1.153800000000000026e+01,1.154400000000000048e+01,1.155000000000000071e+01,1.155600000000000094e+01,1.156199999999999939e+01,1.156799999999999962e+01,1.157399999999999984e+01,1.158000000000000007e+01,1.158600000000000030e+01,1.159200000000000053e+01,1.159800000000000075e+01,1.160400000000000098e+01,1.160999999999999943e+01,1.161599999999999966e+01,1.162199999999999989e+01,1.162800000000000011e+01,1.163400000000000034e+01,1.164000000000000057e+01,1.164600000000000080e+01,1.165200000000000102e+01,1.165799999999999947e+01,1.166399999999999970e+01,1.166999999999999993e+01,1.167600000000000016e+01,1.168200000000000038e+01,1.168800000000000061e+01,1.169400000000000084e+01,1.170000000000000107e+01,1.170599999999999952e+01,1.171199999999999974e+01,1.171799999999999997e+01,1.172400000000000020e+01,1.173000000000000043e+01,1.173600000000000065e+01,1.174200000000000088e+01,1.174800000000000111e+01,1.175399999999999956e+01,1.175999999999999979e+01,1.176600000000000001e+01,1.177200000000000024e+01,1.177800000000000047e+01,1.178400000000000070e+01,1.179000000000000092e+01,1.179599999999999937e+01,1.180199999999999960e+01,1.180799999999999983e+01,1.181400000000000006e+01,1.182000000000000028e+01,1.182600000000000051e+01,1.183200000000000074e+01,1.183800000000000097e+01,1.184399999999999942e+01,1.184999999999999964e+01,1.185599999999999987e+01,1.186200000000000010e+01,1.186800000000000033e+01,1.187400000000000055e+01,1.188000000000000078e+01,1.188600000000000101e+01,1.189199999999999946e+01,1.189799999999999969e+01,1.190399999999999991e+01,1.191000000000000014e+01,1.191600000000000037e+01,1.192200000000000060e+01,1.192800000000000082e+01,1.193400000000000105e+01,1.193999999999999950e+01,1.194599999999999973e+01,1.195199999999999996e+01,1.195800000000000018e+01,1.196400000000000041e+01,1.197000000000000064e+01,1.197600000000000087e+01,1.198200000000000109e+01,1.198799999999999955e+01,1.199399999999999977e+01,1.200000000000000000e+01,1.200600000000000023e+01,1.201200000000000045e+01,1.201800000000000068e+01,1.202400000000000091e+01,1.203000000000000114e+01,1.203599999999999959e+01,1.204199999999999982e+01,1.204800000000000004e+01,1.205400000000000027e+01,1.206000000000000050e+01,1.206600000000000072e+01,1.207200000000000095e+01,1.207799999999999940e+01,1.208399999999999963e+01,1.208999999999999986e+01,1.209600000000000009e+01,1.210200000000000031e+01,1.210800000000000054e+01,1.211400000000000077e+01,1.212000000000000099e+01,1.212599999999999945e+01,1.213199999999999967e+01,1.213799999999999990e+01,1.214400000000000013e+01,1.215000000000000036e+01,1.215600000000000058e+01,1.216200000000000081e+01,1.216800000000000104e+01,1.217399999999999949e+01,1.217999999999999972e+01,1.218599999999999994e+01,1.219200000000000017e+01,1.219800000000000040e+01,1.220400000000000063e+01,1.221000000000000085e+01,1.221600000000000108e+01,1.222199999999999953e+01,1.222799999999999976e+01,1.223399999999999999e+01,1.224000000000000021e+01,1.224600000000000044e+01,1.225200000000000067e+01,1.225800000000000090e+01,1.226400000000000112e+01,1.226999999999999957e+01,1.227599999999999980e+01,1.228200000000000003e+01,1.228800000000000026e+01,1.229400000000000048e+01,1.230000000000000071e+01,1.230600000000000094e+01,1.231199999999999939e+01,1.231799999999999962e+01,1.232399999999999984e+01,1.233000000000000007e+01,1.233600000000000030e+01,1.234200000000000053e+01,1.234800000000000075e+01,1.235400000000000098e+01,1.235999999999999943e+01,1.236599999999999966e+01,1.237199999999999989e+01,1.237800000000000011e+01,1.238400000000000034e+01,1.239000000000000057e+01,1.239600000000000080e+01,1.240200000000000102e+01,1.240799999999999947e+01,1.241399999999999970e+01,1.241999999999999993e+01,1.242600000000000016e+01,1.243200000000000038e+01,1.243800000000000061e+01,1.244400000000000084e+01,1.245000000000000107e+01,1.245599999999999952e+01,1.246199999999999974e+01,1.246799999999999997e+01,1.247400000000000020e+01,1.248000000000000043e+01,1.248600000000000065e+01,1.249200000000000088e+01,1.249800000000000111e+01,1.250399999999999956e+01,1.250999999999999979e+01,1.251600000000000001e+01,1.252200000000000024e+01,1.252800000000000047e+01,1.253400000000000070e+01,1.254000000000000092e+01,1.254599999999999937e+01,1.255199999999999960e+01,1.255799999999999983e+01,1.256400000000000006e+01,1.257000000000000028e+01,1.257600000000000051e+01,1.258200000000000074e+01,1.258800000000000097e+01,1.259399999999999942e+01,1.259999999999999964e+01,1.260599999999999987e+01,1.261200000000000010e+01,1.261800000000000033e+01,1.262400000000000055e+01,1.263000000000000078e+01,1.263600000000000101e+01,1.264199999999999946e+01,1.264799999999999969e+01,1.265399999999999991e+01,1.266000000000000014e+01,1.266600000000000037e+01,1.267200000000000060e+01,1.267800000000000082e+01,1.268400000000000105e+01,1.268999999999999950e+01,1.269599999999999973e+01,1.270199999999999996e+01,1.270800000000000018e+01,1.271400000000000041e+01,1.272000000000000064e+01,1.272600000000000087e+01,1.273200000000000109e+01,1.273799999999999955e+01,1.274399999999999977e+01,1.275000000000000000e+01,1.275600000000000023e+01,1.276200000000000045e+01,1.276800000000000068e+01,1.277400000000000091e+01,1.278000000000000114e+01,1.278599999999999959e+01,1.279199999999999982e+01,1.279800000000000004e+01,1.280400000000000027e+01,1.281000000000000050e+01,1.281600000000000072e+01,1.282200000000000095e+01,1.282799999999999940e+01,1.283399999999999963e+01,1.283999999999999986e+01,1.284600000000000009e+01,1.285200000000000031e+01,1.285800000000000054e+01,1.286400000000000077e+01,1.287000000000000099e+01,1.287599999999999945e+01,1.288199999999999967e+01,1.288799999999999990e+01,1.289400000000000013e+01,1.290000000000000036e+01,1.290600000000000058e+01,1.291200000000000081e+01,1.291800000000000104e+01,1.292399999999999949e+01,1.292999999999999972e+01,1.293599999999999994e+01,1.294200000000000017e+01,1.294800000000000040e+01,1.295400000000000063e+01,1.296000000000000085e+01,1.296600000000000108e+01,1.297199999999999953e+01,1.297799999999999976e+01,1.298399999999999999e+01,1.299000000000000021e+01,1.299600000000000044e+01,1.300200000000000067e+01,1.300800000000000090e+01,1.301400000000000112e+01,1.301999999999999957e+01,1.302599999999999980e+01,1.303200000000000003e+01,1.303800000000000026e+01,1.304400000000000048e+01,1.305000000000000071e+01,1.305600000000000094e+01,1.306199999999999939e+01,1.306799999999999962e+01,1.307399999999999984e+01,1.308000000000000007e+01,1.308600000000000030e+01,1.309200000000000053e+01,1.309800000000000075e+01,1.310400000000000098e+01,1.310999999999999943e+01,1.311599999999999966e+01,1.312199999999999989e+01,1.312800000000000011e+01,1.313400000000000034e+01,1.314000000000000057e+01,1.314600000000000080e+01,1.315200000000000102e+01,1.315799999999999947e+01,1.316399999999999970e+01,1.316999999999999993e+01,1.317600000000000016e+01,1.318200000000000038e+01,1.318800000000000061e+01,1.319400000000000084e+01,1.320000000000000107e+01,1.320599999999999952e+01,1.321199999999999974e+01,1.321799999999999997e+01,1.322400000000000020e+01,1.323000000000000043e+01,1.323600000000000065e+01,1.324200000000000088e+01,1.324800000000000111e+01,1.325399999999999956e+01,1.325999999999999979e+01,1.326600000000000001e+01,1.327200000000000024e+01,1.327800000000000047e+01,1.328400000000000070e+01,1.329000000000000092e+01,1.329600000000000115e+01,1.330199999999999960e+01,1.330799999999999983e+01,1.331400000000000006e+01,1.332000000000000028e+01,1.332600000000000051e+01,1.333200000000000074e+01,1.333800000000000097e+01,1.334399999999999942e+01,1.334999999999999964e+01,1.335599999999999987e+01,1.336200000000000010e+01,1.336800000000000033e+01,1.337400000000000055e+01,1.338000000000000078e+01,1.338600000000000101e+01,1.339199999999999946e+01,1.339799999999999969e+01,1.340399999999999991e+01,1.341000000000000014e+01,1.341600000000000037e+01,1.342200000000000060e+01,1.342800000000000082e+01,1.343400000000000105e+01,1.343999999999999950e+01,1.344599999999999973e+01,1.345199999999999996e+01,1.345800000000000018e+01,1.346400000000000041e+01,1.347000000000000064e+01,1.347600000000000087e+01,1.348200000000000109e+01,1.348799999999999955e+01,1.349399999999999977e+01,1.350000000000000000e+01,1.350600000000000023e+01,1.351200000000000045e+01,1.351800000000000068e+01,1.352400000000000091e+01,1.353000000000000114e+01,1.353599999999999959e+01,1.354199999999999982e+01,1.354800000000000004e+01,1.355400000000000027e+01,1.356000000000000050e+01,1.356600000000000072e+01,1.357200000000000095e+01,1.357799999999999940e+01,1.358399999999999963e+01,1.358999999999999986e+01,1.359600000000000009e+01,1.360200000000000031e+01,1.360800000000000054e+01,1.361400000000000077e+01,1.362000000000000099e+01,1.362599999999999945e+01,1.363199999999999967e+01,1.363799999999999990e+01,1.364400000000000013e+01,1.365000000000000036e+01,1.365600000000000058e+01,1.366200000000000081e+01,1.366800000000000104e+01,1.367399999999999949e+01,1.367999999999999972e+01,1.368599999999999994e+01,1.369200000000000017e+01,1.369800000000000040e+01,1.370400000000000063e+01,1.371000000000000085e+01,1.371600000000000108e+01,1.372199999999999953e+01,1.372799999999999976e+01,1.373399999999999999e+01,1.374000000000000021e+01,1.374600000000000044e+01,1.375200000000000067e+01,1.375800000000000090e+01,1.376400000000000112e+01,1.376999999999999957e+01,1.377599999999999980e+01,1.378200000000000003e+01,1.378800000000000026e+01,1.379400000000000048e+01,1.380000000000000071e+01,1.380600000000000094e+01,1.381200000000000117e+01,1.381799999999999962e+01,1.382399999999999984e+01,1.383000000000000007e+01,1.383600000000000030e+01,1.384200000000000053e+01,1.384800000000000075e+01,1.385400000000000098e+01,1.385999999999999943e+01,1.386599999999999966e+01,1.387199999999999989e+01,1.387800000000000011e+01,1.388400000000000034e+01,1.389000000000000057e+01,1.389600000000000080e+01,1.390200000000000102e+01,1.390799999999999947e+01,1.391399999999999970e+01,1.391999999999999993e+01,1.392600000000000016e+01,1.393200000000000038e+01,1.393800000000000061e+01,1.394400000000000084e+01,1.395000000000000107e+01,1.395599999999999952e+01,1.396199999999999974e+01,1.396799999999999997e+01,1.397400000000000020e+01,1.398000000000000043e+01,1.398600000000000065e+01,1.399200000000000088e+01,1.399800000000000111e+01,1.400399999999999956e+01,1.400999999999999979e+01,1.401600000000000001e+01,1.402200000000000024e+01,1.402800000000000047e+01,1.403400000000000070e+01,1.404000000000000092e+01,1.404600000000000115e+01,1.405199999999999960e+01,1.405799999999999983e+01,1.406400000000000006e+01,1.407000000000000028e+01,1.407600000000000051e+01,1.408200000000000074e+01,1.408800000000000097e+01,1.409399999999999942e+01,1.409999999999999964e+01,1.410599999999999987e+01,1.411200000000000010e+01,1.411800000000000033e+01,1.412400000000000055e+01,1.413000000000000078e+01,1.413600000000000101e+01,1.414199999999999946e+01,1.414799999999999969e+01,1.415399999999999991e+01,1.416000000000000014e+01,1.416600000000000037e+01,1.417200000000000060e+01,1.417800000000000082e+01,1.418400000000000105e+01,1.418999999999999950e+01,1.419599999999999973e+01,1.420199999999999996e+01,1.420800000000000018e+01,1.421400000000000041e+01,1.422000000000000064e+01,1.422600000000000087e+01,1.423200000000000109e+01,1.423799999999999955e+01,1.424399999999999977e+01,1.425000000000000000e+01,1.425600000000000023e+01,1.426200000000000045e+01,1.426800000000000068e+01,1.427400000000000091e+01,1.428000000000000114e+01,1.428599999999999959e+01,1.429199999999999982e+01,1.429800000000000004e+01,1.430400000000000027e+01,1.431000000000000050e+01,1.431600000000000072e+01,1.432200000000000095e+01,1.432800000000000118e+01,1.433399999999999963e+01,1.433999999999999986e+01,1.434600000000000009e+01,1.435200000000000031e+01,1.435800000000000054e+01,1.436400000000000077e+01,1.437000000000000099e+01,1.437599999999999945e+01,1.438199999999999967e+01,1.438799999999999990e+01,1.439400000000000013e+01,1.440000000000000036e+01,1.440600000000000058e+01,1.441200000000000081e+01,1.441800000000000104e+01,1.442399999999999949e+01,1.442999999999999972e+01,1.443599999999999994e+01,1.444200000000000017e+01,1.444800000000000040e+01,1.445400000000000063e+01,1.446000000000000085e+01,1.446600000000000108e+01,1.447199999999999953e+01,1.447799999999999976e+01,1.448399999999999999e+01,1.449000000000000021e+01,1.449600000000000044e+01,1.450200000000000067e+01,1.450800000000000090e+01,1.451400000000000112e+01,1.451999999999999957e+01,1.452599999999999980e+01,1.453200000000000003e+01,1.453800000000000026e+01,1.454400000000000048e+01,1.455000000000000071e+01,1.455600000000000094e+01,1.456200000000000117e+01,1.456799999999999962e+01,1.457399999999999984e+01,1.458000000000000007e+01,1.458600000000000030e+01,1.459200000000000053e+01,1.459800000000000075e+01,1.460400000000000098e+01,1.460999999999999943e+01,1.461599999999999966e+01,1.462199999999999989e+01,1.462800000000000011e+01,1.463400000000000034e+01,1.464000000000000057e+01,1.464600000000000080e+01,1.465200000000000102e+01,1.465799999999999947e+01,1.466399999999999970e+01,1.466999999999999993e+01,1.467600000000000016e+01,1.468200000000000038e+01,1.468800000000000061e+01,1.469400000000000084e+01,1.470000000000000107e+01,1.470599999999999952e+01,1.471199999999999974e+01,1.471799999999999997e+01,1.472400000000000020e+01,1.473000000000000043e+01,1.473600000000000065e+01,1.474200000000000088e+01,1.474800000000000111e+01,1.475399999999999956e+01,1.475999999999999979e+01,1.476600000000000001e+01,1.477200000000000024e+01,1.477800000000000047e+01,1.478400000000000070e+01,1.479000000000000092e+01,1.479600000000000115e+01,1.480199999999999960e+01,1.480799999999999983e+01,1.481400000000000006e+01,1.482000000000000028e+01,1.482600000000000051e+01,1.483200000000000074e+01,1.483800000000000097e+01,1.484400000000000119e+01,1.484999999999999964e+01,1.485599999999999987e+01,1.486200000000000010e+01,1.486800000000000033e+01,1.487400000000000055e+01,1.488000000000000078e+01,1.488600000000000101e+01,1.489199999999999946e+01,1.489799999999999969e+01,1.490399999999999991e+01,1.491000000000000014e+01,1.491600000000000037e+01,1.492200000000000060e+01,1.492800000000000082e+01,1.493400000000000105e+01,1.493999999999999950e+01,1.494599999999999973e+01,1.495199999999999996e+01,1.495800000000000018e+01,1.496400000000000041e+01,1.497000000000000064e+01,1.497600000000000087e+01,1.498200000000000109e+01,1.498799999999999955e+01,1.499399999999999977e+01,1.500000000000000000e+01,1.500600000000000023e+01,1.501200000000000045e+01,1.501800000000000068e+01,1.502400000000000091e+01,1.503000000000000114e+01,1.503599999999999959e+01,1.504199999999999982e+01,1.504800000000000004e+01,1.505400000000000027e+01,1.506000000000000050e+01,1.506600000000000072e+01,1.507200000000000095e+01,1.507800000000000118e+01,1.508399999999999963e+01,1.508999999999999986e+01,1.509600000000000009e+01,1.510200000000000031e+01,1.510800000000000054e+01,1.511400000000000077e+01,1.512000000000000099e+01,1.512599999999999945e+01,1.513199999999999967e+01,1.513799999999999990e+01,1.514400000000000013e+01,1.515000000000000036e+01,1.515600000000000058e+01,1.516200000000000081e+01,1.516800000000000104e+01,1.517399999999999949e+01,1.517999999999999972e+01,1.518599999999999994e+01,1.519200000000000017e+01,1.519800000000000040e+01,1.520400000000000063e+01,1.521000000000000085e+01,1.521600000000000108e+01,1.522199999999999953e+01,1.522799999999999976e+01,1.523399999999999999e+01,1.524000000000000021e+01,1.524600000000000044e+01,1.525200000000000067e+01,1.525800000000000090e+01,1.526400000000000112e+01,1.526999999999999957e+01,1.527599999999999980e+01,1.528200000000000003e+01,1.528800000000000026e+01,1.529400000000000048e+01,1.530000000000000071e+01,1.530600000000000094e+01,1.531200000000000117e+01,1.531799999999999962e+01,1.532399999999999984e+01,1.533000000000000007e+01,1.533600000000000030e+01,1.534200000000000053e+01,1.534800000000000075e+01,1.535400000000000098e+01,1.535999999999999943e+01,1.536599999999999966e+01,1.537199999999999989e+01,1.537800000000000011e+01,1.538400000000000034e+01,1.539000000000000057e+01,1.539600000000000080e+01,1.540200000000000102e+01,1.540799999999999947e+01,1.541399999999999970e+01,1.541999999999999993e+01,1.542600000000000016e+01,1.543200000000000038e+01,1.543800000000000061e+01,1.544400000000000084e+01,1.545000000000000107e+01,1.545599999999999952e+01,1.546199999999999974e+01,1.546799999999999997e+01,1.547400000000000020e+01,1.548000000000000043e+01,1.548600000000000065e+01,1.549200000000000088e+01,1.549800000000000111e+01,1.550399999999999956e+01,1.550999999999999979e+01,1.551600000000000001e+01,1.552200000000000024e+01,1.552800000000000047e+01,1.553400000000000070e+01,1.554000000000000092e+01,1.554600000000000115e+01,1.555199999999999960e+01,1.555799999999999983e+01,1.556400000000000006e+01,1.557000000000000028e+01,1.557600000000000051e+01,1.558200000000000074e+01,1.558800000000000097e+01,1.559400000000000119e+01,1.559999999999999964e+01,1.560599999999999987e+01,1.561200000000000010e+01,1.561800000000000033e+01,1.562400000000000055e+01,1.563000000000000078e+01,1.563600000000000101e+01,1.564199999999999946e+01,1.564799999999999969e+01,1.565399999999999991e+01,1.566000000000000014e+01,1.566600000000000037e+01,1.567200000000000060e+01,1.567800000000000082e+01,1.568400000000000105e+01,1.568999999999999950e+01,1.569599999999999973e+01,1.570199999999999996e+01,1.570800000000000018e+01,1.571400000000000041e+01,1.572000000000000064e+01,1.572600000000000087e+01,1.573200000000000109e+01,1.573799999999999955e+01,1.574399999999999977e+01,1.575000000000000000e+01,1.575600000000000023e+01,1.576200000000000045e+01,1.576800000000000068e+01,1.577400000000000091e+01,1.578000000000000114e+01,1.578599999999999959e+01,1.579199999999999982e+01,1.579800000000000004e+01,1.580400000000000027e+01,1.581000000000000050e+01,1.581600000000000072e+01,1.582200000000000095e+01,1.582800000000000118e+01,1.583399999999999963e+01,1.583999999999999986e+01,1.584600000000000009e+01,1.585200000000000031e+01,1.585800000000000054e+01,1.586400000000000077e+01,1.587000000000000099e+01,1.587599999999999945e+01,1.588199999999999967e+01,1.588799999999999990e+01,1.589400000000000013e+01,1.590000000000000036e+01,1.590600000000000058e+01,1.591200000000000081e+01,1.591800000000000104e+01,1.592399999999999949e+01,1.592999999999999972e+01,1.593599999999999994e+01,1.594200000000000017e+01,1.594800000000000040e+01,1.595400000000000063e+01,1.596000000000000085e+01,1.596600000000000108e+01,1.597199999999999953e+01,1.597799999999999976e+01,1.598399999999999999e+01,1.599000000000000021e+01,1.599600000000000044e+01,1.600199999999999889e+01,1.600799999999999912e+01,1.601399999999999935e+01,1.601999999999999957e+01,1.602599999999999980e+01,1.603200000000000003e+01,1.603800000000000026e+01,1.604400000000000048e+01,1.605000000000000071e+01,1.605600000000000094e+01,1.606200000000000117e+01,1.606800000000000139e+01,1.607400000000000162e+01,1.608000000000000185e+01,1.608600000000000207e+01,1.609199999999999875e+01,1.609799999999999898e+01,1.610399999999999920e+01,1.610999999999999943e+01,1.611599999999999966e+01,1.612199999999999989e+01,1.612800000000000011e+01,1.613400000000000034e+01,1.614000000000000057e+01,1.614600000000000080e+01,1.615200000000000102e+01,1.615800000000000125e+01,1.616400000000000148e+01,1.617000000000000171e+01,1.617600000000000193e+01,1.618199999999999861e+01,1.618799999999999883e+01,1.619399999999999906e+01,1.619999999999999929e+01,1.620599999999999952e+01,1.621199999999999974e+01,1.621799999999999997e+01,1.622400000000000020e+01,1.623000000000000043e+01,1.623600000000000065e+01,1.624200000000000088e+01,1.624800000000000111e+01,1.625400000000000134e+01,1.626000000000000156e+01,1.626600000000000179e+01,1.627200000000000202e+01,1.627799999999999869e+01,1.628399999999999892e+01,1.628999999999999915e+01,1.629599999999999937e+01,1.630199999999999960e+01,1.630799999999999983e+01,1.631400000000000006e+01,1.632000000000000028e+01,1.632600000000000051e+01,1.633200000000000074e+01,1.633800000000000097e+01,1.634400000000000119e+01,1.635000000000000142e+01,1.635600000000000165e+01,1.636200000000000188e+01,1.636800000000000210e+01,1.637399999999999878e+01,1.637999999999999901e+01,1.638599999999999923e+01,1.639199999999999946e+01,1.639799999999999969e+01,1.640399999999999991e+01,1.641000000000000014e+01,1.641600000000000037e+01,1.642200000000000060e+01,1.642800000000000082e+01,1.643400000000000105e+01,1.644000000000000128e+01,1.644600000000000151e+01,1.645200000000000173e+01,1.645800000000000196e+01,1.646399999999999864e+01,1.646999999999999886e+01,1.647599999999999909e+01,1.648199999999999932e+01,1.648799999999999955e+01,1.649399999999999977e+01,1.650000000000000000e+01,1.650600000000000023e+01,1.651200000000000045e+01,1.651800000000000068e+01,1.652400000000000091e+01,1.653000000000000114e+01,1.653600000000000136e+01,1.654200000000000159e+01,1.654800000000000182e+01,1.655400000000000205e+01,1.655999999999999872e+01,1.656599999999999895e+01,1.657199999999999918e+01,1.657799999999999940e+01,1.658399999999999963e+01,1.658999999999999986e+01,1.659600000000000009e+01,1.660200000000000031e+01,1.660800000000000054e+01,1.661400000000000077e+01,1.662000000000000099e+01,1.662600000000000122e+01,1.663200000000000145e+01,1.663800000000000168e+01,1.664400000000000190e+01,1.664999999999999858e+01,1.665599999999999881e+01,1.666199999999999903e+01,1.666799999999999926e+01,1.667399999999999949e+01,1.667999999999999972e+01,1.668599999999999994e+01,1.669200000000000017e+01,1.669800000000000040e+01,1.670400000000000063e+01,1.671000000000000085e+01,1.671600000000000108e+01,1.672200000000000131e+01,1.672800000000000153e+01,1.673400000000000176e+01,1.674000000000000199e+01,1.674599999999999866e+01,1.675199999999999889e+01,1.675799999999999912e+01,1.676399999999999935e+01,1.676999999999999957e+01,1.677599999999999980e+01,1.678200000000000003e+01,1.678800000000000026e+01,1.679400000000000048e+01,1.680000000000000071e+01,1.680600000000000094e+01,1.681200000000000117e+01,1.681800000000000139e+01,1.682400000000000162e+01,1.683000000000000185e+01,1.683600000000000207e+01,1.684199999999999875e+01,1.684799999999999898e+01,1.685399999999999920e+01,1.685999999999999943e+01,1.686599999999999966e+01,1.687199999999999989e+01,1.687800000000000011e+01,1.688400000000000034e+01,1.689000000000000057e+01,1.689600000000000080e+01,1.690200000000000102e+01,1.690800000000000125e+01,1.691400000000000148e+01,1.692000000000000171e+01,1.692600000000000193e+01,1.693199999999999861e+01,1.693799999999999883e+01,1.694399999999999906e+01,1.694999999999999929e+01,1.695599999999999952e+01,1.696199999999999974e+01,1.696799999999999997e+01,1.697400000000000020e+01,1.698000000000000043e+01,1.698600000000000065e+01,1.699200000000000088e+01,1.699800000000000111e+01,1.700400000000000134e+01,1.701000000000000156e+01,1.701600000000000179e+01,1.702200000000000202e+01,1.702799999999999869e+01,1.703399999999999892e+01,1.703999999999999915e+01,1.704599999999999937e+01,1.705199999999999960e+01,1.705799999999999983e+01,1.706400000000000006e+01,1.707000000000000028e+01,1.707600000000000051e+01,1.708200000000000074e+01,1.708800000000000097e+01,1.709400000000000119e+01,1.710000000000000142e+01,1.710600000000000165e+01,1.711200000000000188e+01,1.711800000000000210e+01,1.712399999999999878e+01,1.712999999999999901e+01,1.713599999999999923e+01,1.714199999999999946e+01,1.714799999999999969e+01,1.715399999999999991e+01,1.716000000000000014e+01,1.716600000000000037e+01,1.717200000000000060e+01,1.717800000000000082e+01,1.718400000000000105e+01,1.719000000000000128e+01,1.719600000000000151e+01,1.720200000000000173e+01,1.720800000000000196e+01,1.721399999999999864e+01,1.721999999999999886e+01,1.722599999999999909e+01,1.723199999999999932e+01,1.723799999999999955e+01,1.724399999999999977e+01,1.725000000000000000e+01,1.725600000000000023e+01,1.726200000000000045e+01,1.726800000000000068e+01,1.727400000000000091e+01,1.728000000000000114e+01,1.728600000000000136e+01,1.729200000000000159e+01,1.729800000000000182e+01,1.730400000000000205e+01,1.730999999999999872e+01,1.731599999999999895e+01,1.732199999999999918e+01,1.732799999999999940e+01,1.733399999999999963e+01,1.733999999999999986e+01,1.734600000000000009e+01,1.735200000000000031e+01,1.735800000000000054e+01,1.736400000000000077e+01,1.737000000000000099e+01,1.737600000000000122e+01,1.738200000000000145e+01,1.738800000000000168e+01,1.739400000000000190e+01,1.740000000000000213e+01,1.740599999999999881e+01,1.741199999999999903e+01,1.741799999999999926e+01,1.742399999999999949e+01,1.742999999999999972e+01,1.743599999999999994e+01,1.744200000000000017e+01,1.744800000000000040e+01,1.745400000000000063e+01,1.746000000000000085e+01,1.746600000000000108e+01,1.747200000000000131e+01,1.747800000000000153e+01,1.748400000000000176e+01,1.749000000000000199e+01,1.749599999999999866e+01,1.750199999999999889e+01,1.750799999999999912e+01,1.751399999999999935e+01,1.751999999999999957e+01,1.752599999999999980e+01,1.753200000000000003e+01,1.753800000000000026e+01,1.754400000000000048e+01,1.755000000000000071e+01,1.755600000000000094e+01,1.756200000000000117e+01,1.756800000000000139e+01,1.757400000000000162e+01,1.758000000000000185e+01,1.758600000000000207e+01,1.759199999999999875e+01,1.759799999999999898e+01,1.760399999999999920e+01,1.760999999999999943e+01,1.761599999999999966e+01,1.762199999999999989e+01,1.762800000000000011e+01,1.763400000000000034e+01,1.764000000000000057e+01,1.764600000000000080e+01,1.765200000000000102e+01,1.765800000000000125e+01,1.766400000000000148e+01,1.767000000000000171e+01,1.767600000000000193e+01,1.768199999999999861e+01,1.768799999999999883e+01,1.769399999999999906e+01,1.769999999999999929e+01,1.770599999999999952e+01,1.771199999999999974e+01,1.771799999999999997e+01,1.772400000000000020e+01,1.773000000000000043e+01,1.773600000000000065e+01,1.774200000000000088e+01,1.774800000000000111e+01,1.775400000000000134e+01,1.776000000000000156e+01,1.776600000000000179e+01,1.777200000000000202e+01,1.777799999999999869e+01,1.778399999999999892e+01,1.778999999999999915e+01,1.779599999999999937e+01,1.780199999999999960e+01,1.780799999999999983e+01,1.781400000000000006e+01,1.782000000000000028e+01,1.782600000000000051e+01,1.783200000000000074e+01,1.783800000000000097e+01,1.784400000000000119e+01,1.785000000000000142e+01,1.785600000000000165e+01,1.786200000000000188e+01,1.786800000000000210e+01,1.787399999999999878e+01,1.787999999999999901e+01,1.788599999999999923e+01,1.789199999999999946e+01,1.789799999999999969e+01,1.790399999999999991e+01,1.791000000000000014e+01,1.791600000000000037e+01,1.792200000000000060e+01,1.792800000000000082e+01,1.793400000000000105e+01,1.794000000000000128e+01,1.794600000000000151e+01,1.795200000000000173e+01,1.795800000000000196e+01,1.796399999999999864e+01,1.796999999999999886e+01,1.797599999999999909e+01,1.798199999999999932e+01,1.798799999999999955e+01,1.799399999999999977e+01,1.800000000000000000e+01,1.800600000000000023e+01,1.801200000000000045e+01,1.801800000000000068e+01,1.802400000000000091e+01,1.803000000000000114e+01,1.803600000000000136e+01,1.804200000000000159e+01,1.804800000000000182e+01,1.805400000000000205e+01,1.805999999999999872e+01,1.806599999999999895e+01,1.807199999999999918e+01,1.807799999999999940e+01,1.808399999999999963e+01,1.808999999999999986e+01,1.809600000000000009e+01,1.810200000000000031e+01,1.810800000000000054e+01,1.811400000000000077e+01,1.812000000000000099e+01,1.812600000000000122e+01,1.813200000000000145e+01,1.813800000000000168e+01,1.814400000000000190e+01,1.815000000000000213e+01,1.815599999999999881e+01,1.816199999999999903e+01,1.816799999999999926e+01,1.817399999999999949e+01,1.817999999999999972e+01,1.818599999999999994e+01,1.819200000000000017e+01,1.819800000000000040e+01,1.820400000000000063e+01,1.821000000000000085e+01,1.821600000000000108e+01,1.822200000000000131e+01,1.822800000000000153e+01,1.823400000000000176e+01,1.824000000000000199e+01,1.824599999999999866e+01,1.825199999999999889e+01,1.825799999999999912e+01,1.826399999999999935e+01,1.826999999999999957e+01,1.827599999999999980e+01,1.828200000000000003e+01,1.828800000000000026e+01,1.829400000000000048e+01,1.830000000000000071e+01,1.830600000000000094e+01,1.831200000000000117e+01,1.831800000000000139e+01,1.832400000000000162e+01,1.833000000000000185e+01,1.833600000000000207e+01,1.834199999999999875e+01,1.834799999999999898e+01,1.835399999999999920e+01,1.835999999999999943e+01,1.836599999999999966e+01,1.837199999999999989e+01,1.837800000000000011e+01,1.838400000000000034e+01,1.839000000000000057e+01,1.839600000000000080e+01,1.840200000000000102e+01,1.840800000000000125e+01,1.841400000000000148e+01,1.842000000000000171e+01,1.842600000000000193e+01,1.843200000000000216e+01,1.843799999999999883e+01,1.844399999999999906e+01,1.844999999999999929e+01,1.845599999999999952e+01,1.846199999999999974e+01,1.846799999999999997e+01,1.847400000000000020e+01,1.848000000000000043e+01,1.848600000000000065e+01,1.849200000000000088e+01,1.849800000000000111e+01,1.850400000000000134e+01,1.851000000000000156e+01,1.851600000000000179e+01,1.852200000000000202e+01,1.852799999999999869e+01,1.853399999999999892e+01,1.853999999999999915e+01,1.854599999999999937e+01,1.855199999999999960e+01,1.855799999999999983e+01,1.856400000000000006e+01,1.857000000000000028e+01,1.857600000000000051e+01,1.858200000000000074e+01,1.858800000000000097e+01,1.859400000000000119e+01,1.860000000000000142e+01,1.860600000000000165e+01,1.861200000000000188e+01,1.861800000000000210e+01,1.862399999999999878e+01,1.862999999999999901e+01,1.863599999999999923e+01,1.864199999999999946e+01,1.864799999999999969e+01,1.865399999999999991e+01,1.866000000000000014e+01,1.866600000000000037e+01,1.867200000000000060e+01,1.867800000000000082e+01,1.868400000000000105e+01,1.869000000000000128e+01,1.869600000000000151e+01,1.870200000000000173e+01,1.870800000000000196e+01,1.871399999999999864e+01,1.871999999999999886e+01,1.872599999999999909e+01,1.873199999999999932e+01,1.873799999999999955e+01,1.874399999999999977e+01,1.875000000000000000e+01,1.875600000000000023e+01,1.876200000000000045e+01,1.876800000000000068e+01,1.877400000000000091e+01,1.878000000000000114e+01,1.878600000000000136e+01,1.879200000000000159e+01,1.879800000000000182e+01,1.880400000000000205e+01,1.880999999999999872e+01,1.881599999999999895e+01,1.882199999999999918e+01,1.882799999999999940e+01,1.883399999999999963e+01,1.883999999999999986e+01,1.884600000000000009e+01,1.885200000000000031e+01,1.885800000000000054e+01,1.886400000000000077e+01,1.887000000000000099e+01,1.887600000000000122e+01,1.888200000000000145e+01,1.888800000000000168e+01,1.889400000000000190e+01,1.890000000000000213e+01,1.890599999999999881e+01,1.891199999999999903e+01,1.891799999999999926e+01,1.892399999999999949e+01,1.892999999999999972e+01,1.893599999999999994e+01,1.894200000000000017e+01,1.894800000000000040e+01,1.895400000000000063e+01,1.896000000000000085e+01,1.896600000000000108e+01,1.897200000000000131e+01,1.897800000000000153e+01,1.898400000000000176e+01,1.899000000000000199e+01,1.899599999999999866e+01,1.900199999999999889e+01,1.900799999999999912e+01,1.901399999999999935e+01,1.901999999999999957e+01,1.902599999999999980e+01,1.903200000000000003e+01,1.903800000000000026e+01,1.904400000000000048e+01,1.905000000000000071e+01,1.905600000000000094e+01,1.906200000000000117e+01,1.906800000000000139e+01,1.907400000000000162e+01,1.908000000000000185e+01,1.908600000000000207e+01,1.909199999999999875e+01,1.909799999999999898e+01,1.910399999999999920e+01,1.910999999999999943e+01,1.911599999999999966e+01,1.912199999999999989e+01,1.912800000000000011e+01,1.913400000000000034e+01,1.914000000000000057e+01,1.914600000000000080e+01,1.915200000000000102e+01,1.915800000000000125e+01,1.916400000000000148e+01,1.917000000000000171e+01,1.917600000000000193e+01,1.918200000000000216e+01,1.918799999999999883e+01,1.919399999999999906e+01,1.919999999999999929e+01,1.920599999999999952e+01,1.921199999999999974e+01,1.921799999999999997e+01,1.922400000000000020e+01,1.923000000000000043e+01,1.923600000000000065e+01,1.924200000000000088e+01,1.924800000000000111e+01,1.925400000000000134e+01,1.926000000000000156e+01,1.926600000000000179e+01,1.927200000000000202e+01,1.927799999999999869e+01,1.928399999999999892e+01,1.928999999999999915e+01,1.929599999999999937e+01,1.930199999999999960e+01,1.930799999999999983e+01,1.931400000000000006e+01,1.932000000000000028e+01,1.932600000000000051e+01,1.933200000000000074e+01,1.933800000000000097e+01,1.934400000000000119e+01,1.935000000000000142e+01,1.935600000000000165e+01,1.936200000000000188e+01,1.936800000000000210e+01,1.937399999999999878e+01,1.937999999999999901e+01,1.938599999999999923e+01,1.939199999999999946e+01,1.939799999999999969e+01,1.940399999999999991e+01,1.941000000000000014e+01,1.941600000000000037e+01,1.942200000000000060e+01,1.942800000000000082e+01,1.943400000000000105e+01,1.944000000000000128e+01,1.944600000000000151e+01,1.945200000000000173e+01,1.945800000000000196e+01,1.946399999999999864e+01,1.946999999999999886e+01,1.947599999999999909e+01,1.948199999999999932e+01,1.948799999999999955e+01,1.949399999999999977e+01,1.950000000000000000e+01,1.950600000000000023e+01,1.951200000000000045e+01,1.951800000000000068e+01,1.952400000000000091e+01,1.953000000000000114e+01,1.953600000000000136e+01,1.954200000000000159e+01,1.954800000000000182e+01,1.955400000000000205e+01,1.955999999999999872e+01,1.956599999999999895e+01,1.957199999999999918e+01,1.957799999999999940e+01,1.958399999999999963e+01,1.958999999999999986e+01,1.959600000000000009e+01,1.960200000000000031e+01,1.960800000000000054e+01,1.961400000000000077e+01,1.962000000000000099e+01,1.962600000000000122e+01,1.963200000000000145e+01,1.963800000000000168e+01,1.964400000000000190e+01,1.965000000000000213e+01,1.965599999999999881e+01,1.966199999999999903e+01,1.966799999999999926e+01,1.967399999999999949e+01,1.967999999999999972e+01,1.968599999999999994e+01,1.969200000000000017e+01,1.969800000000000040e+01,1.970400000000000063e+01,1.971000000000000085e+01,1.971600000000000108e+01,1.972200000000000131e+01,1.972800000000000153e+01,1.973400000000000176e+01,1.974000000000000199e+01,1.974599999999999866e+01,1.975199999999999889e+01,1.975799999999999912e+01,1.976399999999999935e+01,1.976999999999999957e+01,1.977599999999999980e+01,1.978200000000000003e+01,1.978800000000000026e+01,1.979400000000000048e+01,1.980000000000000071e+01,1.980600000000000094e+01,1.981200000000000117e+01,1.981800000000000139e+01,1.982400000000000162e+01,1.983000000000000185e+01,1.983600000000000207e+01,1.984199999999999875e+01,1.984799999999999898e+01,1.985399999999999920e+01,1.985999999999999943e+01,1.986599999999999966e+01,1.987199999999999989e+01,1.987800000000000011e+01,1.988400000000000034e+01,1.989000000000000057e+01,1.989600000000000080e+01,1.990200000000000102e+01,1.990800000000000125e+01,1.991400000000000148e+01,1.992000000000000171e+01,1.992600000000000193e+01,1.993200000000000216e+01,1.993799999999999883e+01,1.994399999999999906e+01,1.994999999999999929e+01,1.995599999999999952e+01,1.996199999999999974e+01,1.996799999999999997e+01,1.997400000000000020e+01,1.998000000000000043e+01,1.998600000000000065e+01,1.999200000000000088e+01,1.999800000000000111e+01,2.000400000000000134e+01,2.001000000000000156e+01,2.001600000000000179e+01,2.002200000000000202e+01,2.002799999999999869e+01,2.003399999999999892e+01,2.003999999999999915e+01,2.004599999999999937e+01,2.005199999999999960e+01,2.005799999999999983e+01,2.006400000000000006e+01,2.007000000000000028e+01,2.007600000000000051e+01,2.008200000000000074e+01,2.008800000000000097e+01,2.009400000000000119e+01,2.010000000000000142e+01,2.010600000000000165e+01,2.011200000000000188e+01,2.011800000000000210e+01,2.012399999999999878e+01,2.012999999999999901e+01,2.013599999999999923e+01,2.014199999999999946e+01,2.014799999999999969e+01,2.015399999999999991e+01,2.016000000000000014e+01,2.016600000000000037e+01,2.017200000000000060e+01,2.017800000000000082e+01,2.018400000000000105e+01,2.019000000000000128e+01,2.019600000000000151e+01,2.020200000000000173e+01,2.020800000000000196e+01,2.021400000000000219e+01,2.021999999999999886e+01,2.022599999999999909e+01,2.023199999999999932e+01,2.023799999999999955e+01,2.024399999999999977e+01,2.025000000000000000e+01,2.025600000000000023e+01,2.026200000000000045e+01,2.026800000000000068e+01,2.027400000000000091e+01,2.028000000000000114e+01,2.028600000000000136e+01,2.029200000000000159e+01,2.029800000000000182e+01,2.030400000000000205e+01,2.030999999999999872e+01,2.031599999999999895e+01,2.032199999999999918e+01,2.032799999999999940e+01,2.033399999999999963e+01,2.033999999999999986e+01,2.034600000000000009e+01,2.035200000000000031e+01,2.035800000000000054e+01,2.036400000000000077e+01,2.037000000000000099e+01,2.037600000000000122e+01,2.038200000000000145e+01,2.038800000000000168e+01,2.039400000000000190e+01,2.040000000000000213e+01,2.040599999999999881e+01,2.041199999999999903e+01,2.041799999999999926e+01,2.042399999999999949e+01,2.042999999999999972e+01,2.043599999999999994e+01,2.044200000000000017e+01,2.044800000000000040e+01,2.045400000000000063e+01,2.046000000000000085e+01,2.046600000000000108e+01,2.047200000000000131e+01,2.047800000000000153e+01,2.048400000000000176e+01,2.049000000000000199e+01,2.049599999999999866e+01,2.050199999999999889e+01,2.050799999999999912e+01,2.051399999999999935e+01,2.051999999999999957e+01,2.052599999999999980e+01,2.053200000000000003e+01,2.053800000000000026e+01,2.054400000000000048e+01,2.055000000000000071e+01,2.055600000000000094e+01,2.056200000000000117e+01,2.056800000000000139e+01,2.057400000000000162e+01,2.058000000000000185e+01,2.058600000000000207e+01,2.059199999999999875e+01,2.059799999999999898e+01,2.060399999999999920e+01,2.060999999999999943e+01,2.061599999999999966e+01,2.062199999999999989e+01,2.062800000000000011e+01,2.063400000000000034e+01,2.064000000000000057e+01,2.064600000000000080e+01,2.065200000000000102e+01,2.065800000000000125e+01,2.066400000000000148e+01,2.067000000000000171e+01,2.067600000000000193e+01,2.068200000000000216e+01,2.068799999999999883e+01,2.069399999999999906e+01,2.069999999999999929e+01,2.070599999999999952e+01,2.071199999999999974e+01,2.071799999999999997e+01,2.072400000000000020e+01,2.073000000000000043e+01,2.073600000000000065e+01,2.074200000000000088e+01,2.074800000000000111e+01,2.075400000000000134e+01,2.076000000000000156e+01,2.076600000000000179e+01,2.077200000000000202e+01,2.077799999999999869e+01,2.078399999999999892e+01,2.078999999999999915e+01,2.079599999999999937e+01,2.080199999999999960e+01,2.080799999999999983e+01,2.081400000000000006e+01,2.082000000000000028e+01,2.082600000000000051e+01,2.083200000000000074e+01,2.083800000000000097e+01,2.084400000000000119e+01,2.085000000000000142e+01,2.085600000000000165e+01,2.086200000000000188e+01,2.086800000000000210e+01,2.087399999999999878e+01,2.087999999999999901e+01,2.088599999999999923e+01,2.089199999999999946e+01,2.089799999999999969e+01,2.090399999999999991e+01,2.091000000000000014e+01,2.091600000000000037e+01,2.092200000000000060e+01,2.092800000000000082e+01,2.093400000000000105e+01,2.094000000000000128e+01,2.094600000000000151e+01,2.095200000000000173e+01,2.095800000000000196e+01,2.096400000000000219e+01,2.096999999999999886e+01,2.097599999999999909e+01,2.098199999999999932e+01,2.098799999999999955e+01,2.099399999999999977e+01,2.100000000000000000e+01,2.100600000000000023e+01,2.101200000000000045e+01,2.101800000000000068e+01,2.102400000000000091e+01,2.103000000000000114e+01,2.103600000000000136e+01,2.104200000000000159e+01,2.104800000000000182e+01,2.105400000000000205e+01,2.105999999999999872e+01,2.106599999999999895e+01,2.107199999999999918e+01,2.107799999999999940e+01,2.108399999999999963e+01,2.108999999999999986e+01,2.109600000000000009e+01,2.110200000000000031e+01,2.110800000000000054e+01,2.111400000000000077e+01,2.112000000000000099e+01,2.112600000000000122e+01,2.113200000000000145e+01,2.113800000000000168e+01,2.114400000000000190e+01,2.115000000000000213e+01,2.115599999999999881e+01,2.116199999999999903e+01,2.116799999999999926e+01,2.117399999999999949e+01,2.117999999999999972e+01,2.118599999999999994e+01,2.119200000000000017e+01,2.119800000000000040e+01,2.120400000000000063e+01,2.121000000000000085e+01,2.121600000000000108e+01,2.122200000000000131e+01,2.122800000000000153e+01,2.123400000000000176e+01,2.124000000000000199e+01,2.124600000000000222e+01,2.125199999999999889e+01,2.125799999999999912e+01,2.126399999999999935e+01,2.126999999999999957e+01,2.127599999999999980e+01,2.128200000000000003e+01,2.128800000000000026e+01,2.129400000000000048e+01,2.130000000000000071e+01,2.130600000000000094e+01,2.131200000000000117e+01,2.131800000000000139e+01,2.132400000000000162e+01,2.133000000000000185e+01,2.133600000000000207e+01,2.134199999999999875e+01,2.134799999999999898e+01,2.135399999999999920e+01,2.135999999999999943e+01,2.136599999999999966e+01,2.137199999999999989e+01,2.137800000000000011e+01,2.138400000000000034e+01,2.139000000000000057e+01,2.139600000000000080e+01,2.140200000000000102e+01,2.140800000000000125e+01,2.141400000000000148e+01,2.142000000000000171e+01,2.142600000000000193e+01,2.143200000000000216e+01,2.143799999999999883e+01,2.144399999999999906e+01,2.144999999999999929e+01,2.145599999999999952e+01,2.146199999999999974e+01,2.146799999999999997e+01,2.147400000000000020e+01,2.148000000000000043e+01,2.148600000000000065e+01,2.149200000000000088e+01,2.149800000000000111e+01,2.150400000000000134e+01,2.151000000000000156e+01,2.151600000000000179e+01,2.152200000000000202e+01,2.152799999999999869e+01,2.153399999999999892e+01,2.153999999999999915e+01,2.154599999999999937e+01,2.155199999999999960e+01,2.155799999999999983e+01,2.156400000000000006e+01,2.157000000000000028e+01,2.157600000000000051e+01,2.158200000000000074e+01,2.158800000000000097e+01,2.159400000000000119e+01,2.160000000000000142e+01,2.160600000000000165e+01,2.161200000000000188e+01,2.161800000000000210e+01,2.162399999999999878e+01,2.162999999999999901e+01,2.163599999999999923e+01,2.164199999999999946e+01,2.164799999999999969e+01,2.165399999999999991e+01,2.166000000000000014e+01,2.166600000000000037e+01,2.167200000000000060e+01,2.167800000000000082e+01,2.168400000000000105e+01,2.169000000000000128e+01,2.169600000000000151e+01,2.170200000000000173e+01,2.170800000000000196e+01,2.171400000000000219e+01,2.171999999999999886e+01,2.172599999999999909e+01,2.173199999999999932e+01,2.173799999999999955e+01,2.174399999999999977e+01,2.175000000000000000e+01,2.175600000000000023e+01,2.176200000000000045e+01,2.176800000000000068e+01,2.177400000000000091e+01,2.178000000000000114e+01,2.178600000000000136e+01,2.179200000000000159e+01,2.179800000000000182e+01,2.180400000000000205e+01,2.180999999999999872e+01,2.181599999999999895e+01,2.182199999999999918e+01,2.182799999999999940e+01,2.183399999999999963e+01,2.183999999999999986e+01,2.184600000000000009e+01,2.185200000000000031e+01,2.185800000000000054e+01,2.186400000000000077e+01,2.187000000000000099e+01,2.187600000000000122e+01,2.188200000000000145e+01,2.188800000000000168e+01,2.189400000000000190e+01,2.190000000000000213e+01,2.190599999999999881e+01,2.191199999999999903e+01,2.191799999999999926e+01,2.192399999999999949e+01,2.192999999999999972e+01,2.193599999999999994e+01,2.194200000000000017e+01,2.194800000000000040e+01,2.195400000000000063e+01,2.196000000000000085e+01,2.196600000000000108e+01,2.197200000000000131e+01,2.197800000000000153e+01,2.198400000000000176e+01,2.199000000000000199e+01,2.199600000000000222e+01,2.200199999999999889e+01,2.200799999999999912e+01,2.201399999999999935e+01,2.201999999999999957e+01,2.202599999999999980e+01,2.203200000000000003e+01,2.203800000000000026e+01,2.204400000000000048e+01,2.205000000000000071e+01,2.205600000000000094e+01,2.206200000000000117e+01,2.206800000000000139e+01,2.207400000000000162e+01,2.208000000000000185e+01,2.208600000000000207e+01,2.209199999999999875e+01,2.209799999999999898e+01,2.210399999999999920e+01,2.210999999999999943e+01,2.211599999999999966e+01,2.212199999999999989e+01,2.212800000000000011e+01,2.213400000000000034e+01,2.214000000000000057e+01,2.214600000000000080e+01,2.215200000000000102e+01,2.215800000000000125e+01,2.216400000000000148e+01,2.217000000000000171e+01,2.217600000000000193e+01,2.218200000000000216e+01,2.218799999999999883e+01,2.219399999999999906e+01,2.219999999999999929e+01,2.220599999999999952e+01,2.221199999999999974e+01,2.221799999999999997e+01,2.222400000000000020e+01,2.223000000000000043e+01,2.223600000000000065e+01,2.224200000000000088e+01,2.224800000000000111e+01,2.225400000000000134e+01,2.226000000000000156e+01,2.226600000000000179e+01,2.227200000000000202e+01,2.227799999999999869e+01,2.228399999999999892e+01,2.228999999999999915e+01,2.229599999999999937e+01,2.230199999999999960e+01,2.230799999999999983e+01,2.231400000000000006e+01,2.232000000000000028e+01,2.232600000000000051e+01,2.233200000000000074e+01,2.233800000000000097e+01,2.234400000000000119e+01,2.235000000000000142e+01,2.235600000000000165e+01,2.236200000000000188e+01,2.236800000000000210e+01,2.237399999999999878e+01,2.237999999999999901e+01,2.238599999999999923e+01,2.239199999999999946e+01,2.239799999999999969e+01,2.240399999999999991e+01,2.241000000000000014e+01,2.241600000000000037e+01,2.242200000000000060e+01,2.242800000000000082e+01,2.243400000000000105e+01,2.244000000000000128e+01,2.244600000000000151e+01,2.245200000000000173e+01,2.245800000000000196e+01,2.246400000000000219e+01,2.246999999999999886e+01,2.247599999999999909e+01,2.248199999999999932e+01,2.248799999999999955e+01,2.249399999999999977e+01,2.250000000000000000e+01,2.250600000000000023e+01,2.251200000000000045e+01,2.251800000000000068e+01,2.252400000000000091e+01,2.253000000000000114e+01,2.253600000000000136e+01,2.254200000000000159e+01,2.254800000000000182e+01,2.255400000000000205e+01,2.255999999999999872e+01,2.256599999999999895e+01,2.257199999999999918e+01,2.257799999999999940e+01,2.258399999999999963e+01,2.258999999999999986e+01,2.259600000000000009e+01,2.260200000000000031e+01,2.260800000000000054e+01,2.261400000000000077e+01,2.262000000000000099e+01,2.262600000000000122e+01,2.263200000000000145e+01,2.263800000000000168e+01,2.264400000000000190e+01,2.265000000000000213e+01,2.265599999999999881e+01,2.266199999999999903e+01,2.266799999999999926e+01,2.267399999999999949e+01,2.267999999999999972e+01,2.268599999999999994e+01,2.269200000000000017e+01,2.269800000000000040e+01,2.270400000000000063e+01,2.271000000000000085e+01,2.271600000000000108e+01,2.272200000000000131e+01,2.272800000000000153e+01,2.273400000000000176e+01,2.274000000000000199e+01,2.274600000000000222e+01,2.275199999999999889e+01,2.275799999999999912e+01,2.276399999999999935e+01,2.276999999999999957e+01,2.277599999999999980e+01,2.278200000000000003e+01,2.278800000000000026e+01,2.279400000000000048e+01,2.280000000000000071e+01,2.280600000000000094e+01,2.281200000000000117e+01,2.281800000000000139e+01,2.282400000000000162e+01,2.283000000000000185e+01,2.283600000000000207e+01,2.284199999999999875e+01,2.284799999999999898e+01,2.285399999999999920e+01,2.285999999999999943e+01,2.286599999999999966e+01,2.287199999999999989e+01,2.287800000000000011e+01,2.288400000000000034e+01,2.289000000000000057e+01,2.289600000000000080e+01,2.290200000000000102e+01,2.290800000000000125e+01,2.291400000000000148e+01,2.292000000000000171e+01,2.292600000000000193e+01,2.293200000000000216e+01,2.293799999999999883e+01,2.294399999999999906e+01,2.294999999999999929e+01,2.295599999999999952e+01,2.296199999999999974e+01,2.296799999999999997e+01,2.297400000000000020e+01,2.298000000000000043e+01,2.298600000000000065e+01,2.299200000000000088e+01,2.299800000000000111e+01,2.300400000000000134e+01,2.301000000000000156e+01,2.301600000000000179e+01,2.302200000000000202e+01,2.302800000000000225e+01,2.303399999999999892e+01,2.303999999999999915e+01,2.304599999999999937e+01,2.305199999999999960e+01,2.305799999999999983e+01,2.306400000000000006e+01,2.307000000000000028e+01,2.307600000000000051e+01,2.308200000000000074e+01,2.308800000000000097e+01,2.309400000000000119e+01,2.310000000000000142e+01,2.310600000000000165e+01,2.311200000000000188e+01,2.311800000000000210e+01,2.312399999999999878e+01,2.312999999999999901e+01,2.313599999999999923e+01,2.314199999999999946e+01,2.314799999999999969e+01,2.315399999999999991e+01,2.316000000000000014e+01,2.316600000000000037e+01,2.317200000000000060e+01,2.317800000000000082e+01,2.318400000000000105e+01,2.319000000000000128e+01,2.319600000000000151e+01,2.320200000000000173e+01,2.320800000000000196e+01,2.321400000000000219e+01,2.321999999999999886e+01,2.322599999999999909e+01,2.323199999999999932e+01,2.323799999999999955e+01,2.324399999999999977e+01,2.325000000000000000e+01,2.325600000000000023e+01,2.326200000000000045e+01,2.326800000000000068e+01,2.327400000000000091e+01,2.328000000000000114e+01,2.328600000000000136e+01,2.329200000000000159e+01,2.329800000000000182e+01,2.330400000000000205e+01,2.330999999999999872e+01,2.331599999999999895e+01,2.332199999999999918e+01,2.332799999999999940e+01,2.333399999999999963e+01,2.333999999999999986e+01,2.334600000000000009e+01,2.335200000000000031e+01,2.335800000000000054e+01,2.336400000000000077e+01,2.337000000000000099e+01,2.337600000000000122e+01,2.338200000000000145e+01,2.338800000000000168e+01,2.339400000000000190e+01,2.340000000000000213e+01,2.340599999999999881e+01,2.341199999999999903e+01,2.341799999999999926e+01,2.342399999999999949e+01,2.342999999999999972e+01,2.343599999999999994e+01,2.344200000000000017e+01,2.344800000000000040e+01,2.345400000000000063e+01,2.346000000000000085e+01,2.346600000000000108e+01,2.347200000000000131e+01,2.347800000000000153e+01,2.348400000000000176e+01,2.349000000000000199e+01,2.349600000000000222e+01,2.350199999999999889e+01,2.350799999999999912e+01,2.351399999999999935e+01,2.351999999999999957e+01,2.352599999999999980e+01,2.353200000000000003e+01,2.353800000000000026e+01,2.354400000000000048e+01,2.355000000000000071e+01,2.355600000000000094e+01,2.356200000000000117e+01,2.356800000000000139e+01,2.357400000000000162e+01,2.358000000000000185e+01,2.358600000000000207e+01,2.359199999999999875e+01,2.359799999999999898e+01,2.360399999999999920e+01,2.360999999999999943e+01,2.361599999999999966e+01,2.362199999999999989e+01,2.362800000000000011e+01,2.363400000000000034e+01,2.364000000000000057e+01,2.364600000000000080e+01,2.365200000000000102e+01,2.365800000000000125e+01,2.366400000000000148e+01,2.367000000000000171e+01,2.367600000000000193e+01,2.368200000000000216e+01,2.368799999999999883e+01,2.369399999999999906e+01,2.369999999999999929e+01,2.370599999999999952e+01,2.371199999999999974e+01,2.371799999999999997e+01,2.372400000000000020e+01,2.373000000000000043e+01,2.373600000000000065e+01,2.374200000000000088e+01,2.374800000000000111e+01,2.375400000000000134e+01,2.376000000000000156e+01,2.376600000000000179e+01,2.377200000000000202e+01,2.377800000000000225e+01,2.378399999999999892e+01,2.378999999999999915e+01,2.379599999999999937e+01,2.380199999999999960e+01,2.380799999999999983e+01,2.381400000000000006e+01,2.382000000000000028e+01,2.382600000000000051e+01,2.383200000000000074e+01,2.383800000000000097e+01,2.384400000000000119e+01,2.385000000000000142e+01,2.385600000000000165e+01,2.386200000000000188e+01,2.386800000000000210e+01,2.387399999999999878e+01,2.387999999999999901e+01,2.388599999999999923e+01,2.389199999999999946e+01,2.389799999999999969e+01,2.390399999999999991e+01,2.391000000000000014e+01,2.391600000000000037e+01,2.392200000000000060e+01,2.392800000000000082e+01,2.393400000000000105e+01,2.394000000000000128e+01,2.394600000000000151e+01,2.395200000000000173e+01,2.395800000000000196e+01,2.396400000000000219e+01,2.396999999999999886e+01,2.397599999999999909e+01,2.398199999999999932e+01,2.398799999999999955e+01,2.399399999999999977e+01,2.400000000000000000e+01,2.400600000000000023e+01,2.401200000000000045e+01,2.401800000000000068e+01,2.402400000000000091e+01,2.403000000000000114e+01,2.403600000000000136e+01,2.404200000000000159e+01,2.404800000000000182e+01,2.405400000000000205e+01,2.406000000000000227e+01,2.406599999999999895e+01,2.407199999999999918e+01,2.407799999999999940e+01,2.408399999999999963e+01,2.408999999999999986e+01,2.409600000000000009e+01,2.410200000000000031e+01,2.410800000000000054e+01,2.411400000000000077e+01,2.412000000000000099e+01,2.412600000000000122e+01,2.413200000000000145e+01,2.413800000000000168e+01,2.414400000000000190e+01,2.415000000000000213e+01,2.415599999999999881e+01,2.416199999999999903e+01,2.416799999999999926e+01,2.417399999999999949e+01,2.417999999999999972e+01,2.418599999999999994e+01,2.419200000000000017e+01,2.419800000000000040e+01,2.420400000000000063e+01,2.421000000000000085e+01,2.421600000000000108e+01,2.422200000000000131e+01,2.422800000000000153e+01,2.423400000000000176e+01,2.424000000000000199e+01,2.424600000000000222e+01,2.425199999999999889e+01,2.425799999999999912e+01,2.426399999999999935e+01,2.426999999999999957e+01,2.427599999999999980e+01,2.428200000000000003e+01,2.428800000000000026e+01,2.429400000000000048e+01,2.430000000000000071e+01,2.430600000000000094e+01,2.431200000000000117e+01,2.431800000000000139e+01,2.432400000000000162e+01,2.433000000000000185e+01,2.433600000000000207e+01,2.434199999999999875e+01,2.434799999999999898e+01,2.435399999999999920e+01,2.435999999999999943e+01,2.436599999999999966e+01,2.437199999999999989e+01,2.437800000000000011e+01,2.438400000000000034e+01,2.439000000000000057e+01,2.439600000000000080e+01,2.440200000000000102e+01,2.440800000000000125e+01,2.441400000000000148e+01,2.442000000000000171e+01,2.442600000000000193e+01,2.443200000000000216e+01,2.443799999999999883e+01,2.444399999999999906e+01,2.444999999999999929e+01,2.445599999999999952e+01,2.446199999999999974e+01,2.446799999999999997e+01,2.447400000000000020e+01,2.448000000000000043e+01,2.448600000000000065e+01,2.449200000000000088e+01,2.449800000000000111e+01,2.450400000000000134e+01,2.451000000000000156e+01,2.451600000000000179e+01,2.452200000000000202e+01,2.452800000000000225e+01,2.453399999999999892e+01,2.453999999999999915e+01,2.454599999999999937e+01,2.455199999999999960e+01,2.455799999999999983e+01,2.456400000000000006e+01,2.457000000000000028e+01,2.457600000000000051e+01,2.458200000000000074e+01,2.458800000000000097e+01,2.459400000000000119e+01,2.460000000000000142e+01,2.460600000000000165e+01,2.461200000000000188e+01,2.461800000000000210e+01,2.462399999999999878e+01,2.462999999999999901e+01,2.463599999999999923e+01,2.464199999999999946e+01,2.464799999999999969e+01,2.465399999999999991e+01,2.466000000000000014e+01,2.466600000000000037e+01,2.467200000000000060e+01,2.467800000000000082e+01,2.468400000000000105e+01,2.469000000000000128e+01,2.469600000000000151e+01,2.470200000000000173e+01,2.470800000000000196e+01,2.471400000000000219e+01,2.471999999999999886e+01,2.472599999999999909e+01,2.473199999999999932e+01,2.473799999999999955e+01,2.474399999999999977e+01,2.475000000000000000e+01,2.475600000000000023e+01,2.476200000000000045e+01,2.476800000000000068e+01,2.477400000000000091e+01,2.478000000000000114e+01,2.478600000000000136e+01,2.479200000000000159e+01,2.479800000000000182e+01,2.480400000000000205e+01,2.481000000000000227e+01,2.481599999999999895e+01,2.482199999999999918e+01,2.482799999999999940e+01,2.483399999999999963e+01,2.483999999999999986e+01,2.484600000000000009e+01,2.485200000000000031e+01,2.485800000000000054e+01,2.486400000000000077e+01,2.487000000000000099e+01,2.487600000000000122e+01,2.488200000000000145e+01,2.488800000000000168e+01,2.489400000000000190e+01,2.490000000000000213e+01,2.490599999999999881e+01,2.491199999999999903e+01,2.491799999999999926e+01,2.492399999999999949e+01,2.492999999999999972e+01,2.493599999999999994e+01,2.494200000000000017e+01,2.494800000000000040e+01,2.495400000000000063e+01,2.496000000000000085e+01,2.496600000000000108e+01,2.497200000000000131e+01,2.497800000000000153e+01,2.498400000000000176e+01,2.499000000000000199e+01,2.499600000000000222e+01,2.500199999999999889e+01,2.500799999999999912e+01,2.501399999999999935e+01,2.501999999999999957e+01,2.502599999999999980e+01,2.503200000000000003e+01,2.503800000000000026e+01,2.504400000000000048e+01,2.505000000000000071e+01,2.505600000000000094e+01,2.506200000000000117e+01,2.506800000000000139e+01,2.507400000000000162e+01,2.508000000000000185e+01,2.508600000000000207e+01,2.509199999999999875e+01,2.509799999999999898e+01,2.510399999999999920e+01,2.510999999999999943e+01,2.511599999999999966e+01,2.512199999999999989e+01,2.512800000000000011e+01,2.513400000000000034e+01,2.514000000000000057e+01,2.514600000000000080e+01,2.515200000000000102e+01,2.515800000000000125e+01,2.516400000000000148e+01,2.517000000000000171e+01,2.517600000000000193e+01,2.518200000000000216e+01,2.518799999999999883e+01,2.519399999999999906e+01,2.519999999999999929e+01,2.520599999999999952e+01,2.521199999999999974e+01,2.521799999999999997e+01,2.522400000000000020e+01,2.523000000000000043e+01,2.523600000000000065e+01,2.524200000000000088e+01,2.524800000000000111e+01,2.525400000000000134e+01,2.526000000000000156e+01,2.526600000000000179e+01,2.527200000000000202e+01,2.527800000000000225e+01,2.528399999999999892e+01,2.528999999999999915e+01,2.529599999999999937e+01,2.530199999999999960e+01,2.530799999999999983e+01,2.531400000000000006e+01,2.532000000000000028e+01,2.532600000000000051e+01,2.533200000000000074e+01,2.533800000000000097e+01,2.534400000000000119e+01,2.535000000000000142e+01,2.535600000000000165e+01,2.536200000000000188e+01,2.536800000000000210e+01,2.537399999999999878e+01,2.537999999999999901e+01,2.538599999999999923e+01,2.539199999999999946e+01,2.539799999999999969e+01,2.540399999999999991e+01,2.541000000000000014e+01,2.541600000000000037e+01,2.542200000000000060e+01,2.542800000000000082e+01,2.543400000000000105e+01,2.544000000000000128e+01,2.544600000000000151e+01,2.545200000000000173e+01,2.545800000000000196e+01,2.546400000000000219e+01,2.546999999999999886e+01,2.547599999999999909e+01,2.548199999999999932e+01,2.548799999999999955e+01,2.549399999999999977e+01,2.550000000000000000e+01,2.550600000000000023e+01,2.551200000000000045e+01,2.551800000000000068e+01,2.552400000000000091e+01,2.553000000000000114e+01,2.553600000000000136e+01,2.554200000000000159e+01,2.554800000000000182e+01,2.555400000000000205e+01,2.556000000000000227e+01,2.556599999999999895e+01,2.557199999999999918e+01,2.557799999999999940e+01,2.558399999999999963e+01,2.558999999999999986e+01,2.559600000000000009e+01,2.560200000000000031e+01,2.560800000000000054e+01,2.561400000000000077e+01,2.562000000000000099e+01,2.562600000000000122e+01,2.563200000000000145e+01,2.563800000000000168e+01,2.564400000000000190e+01,2.565000000000000213e+01,2.565599999999999881e+01,2.566199999999999903e+01,2.566799999999999926e+01,2.567399999999999949e+01,2.567999999999999972e+01,2.568599999999999994e+01,2.569200000000000017e+01,2.569800000000000040e+01,2.570400000000000063e+01,2.571000000000000085e+01,2.571600000000000108e+01,2.572200000000000131e+01,2.572800000000000153e+01,2.573400000000000176e+01,2.574000000000000199e+01,2.574600000000000222e+01,2.575199999999999889e+01,2.575799999999999912e+01,2.576399999999999935e+01,2.576999999999999957e+01,2.577599999999999980e+01,2.578200000000000003e+01,2.578800000000000026e+01,2.579400000000000048e+01,2.580000000000000071e+01,2.580600000000000094e+01,2.581200000000000117e+01,2.581800000000000139e+01,2.582400000000000162e+01,2.583000000000000185e+01,2.583600000000000207e+01,2.584200000000000230e+01,2.584799999999999898e+01,2.585399999999999920e+01,2.585999999999999943e+01,2.586599999999999966e+01,2.587199999999999989e+01,2.587800000000000011e+01,2.588400000000000034e+01,2.589000000000000057e+01,2.589600000000000080e+01,2.590200000000000102e+01,2.590800000000000125e+01,2.591400000000000148e+01,2.592000000000000171e+01,2.592600000000000193e+01,2.593200000000000216e+01,2.593799999999999883e+01,2.594399999999999906e+01,2.594999999999999929e+01,2.595599999999999952e+01,2.596199999999999974e+01,2.596799999999999997e+01,2.597400000000000020e+01,2.598000000000000043e+01,2.598600000000000065e+01,2.599200000000000088e+01,2.599800000000000111e+01,2.600400000000000134e+01,2.601000000000000156e+01,2.601600000000000179e+01,2.602200000000000202e+01,2.602800000000000225e+01,2.603399999999999892e+01,2.603999999999999915e+01,2.604599999999999937e+01,2.605199999999999960e+01,2.605799999999999983e+01,2.606400000000000006e+01,2.607000000000000028e+01,2.607600000000000051e+01,2.608200000000000074e+01,2.608800000000000097e+01,2.609400000000000119e+01,2.610000000000000142e+01,2.610600000000000165e+01,2.611200000000000188e+01,2.611800000000000210e+01,2.612399999999999878e+01,2.612999999999999901e+01,2.613599999999999923e+01,2.614199999999999946e+01,2.614799999999999969e+01,2.615399999999999991e+01,2.616000000000000014e+01,2.616600000000000037e+01,2.617200000000000060e+01,2.617800000000000082e+01,2.618400000000000105e+01,2.619000000000000128e+01,2.619600000000000151e+01,2.620200000000000173e+01,2.620800000000000196e+01,2.621400000000000219e+01,2.621999999999999886e+01,2.622599999999999909e+01,2.623199999999999932e+01,2.623799999999999955e+01,2.624399999999999977e+01,2.625000000000000000e+01,2.625600000000000023e+01,2.626200000000000045e+01,2.626800000000000068e+01,2.627400000000000091e+01,2.628000000000000114e+01,2.628600000000000136e+01,2.629200000000000159e+01,2.629800000000000182e+01,2.630400000000000205e+01,2.631000000000000227e+01,2.631599999999999895e+01,2.632199999999999918e+01,2.632799999999999940e+01,2.633399999999999963e+01,2.633999999999999986e+01,2.634600000000000009e+01,2.635200000000000031e+01,2.635800000000000054e+01,2.636400000000000077e+01,2.637000000000000099e+01,2.637600000000000122e+01,2.638200000000000145e+01,2.638800000000000168e+01,2.639400000000000190e+01,2.640000000000000213e+01,2.640599999999999881e+01,2.641199999999999903e+01,2.641799999999999926e+01,2.642399999999999949e+01,2.642999999999999972e+01,2.643599999999999994e+01,2.644200000000000017e+01,2.644800000000000040e+01,2.645400000000000063e+01,2.646000000000000085e+01,2.646600000000000108e+01,2.647200000000000131e+01,2.647800000000000153e+01,2.648400000000000176e+01,2.649000000000000199e+01,2.649600000000000222e+01,2.650199999999999889e+01,2.650799999999999912e+01,2.651399999999999935e+01,2.651999999999999957e+01,2.652599999999999980e+01,2.653200000000000003e+01,2.653800000000000026e+01,2.654400000000000048e+01,2.655000000000000071e+01,2.655600000000000094e+01,2.656200000000000117e+01,2.656800000000000139e+01,2.657400000000000162e+01,2.658000000000000185e+01,2.658600000000000207e+01,2.659200000000000230e+01,2.659799999999999898e+01,2.660399999999999920e+01,2.660999999999999943e+01,2.661599999999999966e+01,2.662199999999999989e+01,2.662800000000000011e+01,2.663400000000000034e+01,2.664000000000000057e+01,2.664600000000000080e+01,2.665200000000000102e+01,2.665800000000000125e+01,2.666400000000000148e+01,2.667000000000000171e+01,2.667600000000000193e+01,2.668200000000000216e+01,2.668799999999999883e+01,2.669399999999999906e+01,2.669999999999999929e+01,2.670599999999999952e+01,2.671199999999999974e+01,2.671799999999999997e+01,2.672400000000000020e+01,2.673000000000000043e+01,2.673600000000000065e+01,2.674200000000000088e+01,2.674800000000000111e+01,2.675400000000000134e+01,2.676000000000000156e+01,2.676600000000000179e+01,2.677200000000000202e+01,2.677800000000000225e+01,2.678399999999999892e+01,2.678999999999999915e+01,2.679599999999999937e+01,2.680199999999999960e+01,2.680799999999999983e+01,2.681400000000000006e+01,2.682000000000000028e+01,2.682600000000000051e+01,2.683200000000000074e+01,2.683800000000000097e+01,2.684400000000000119e+01,2.685000000000000142e+01,2.685600000000000165e+01,2.686200000000000188e+01,2.686800000000000210e+01,2.687400000000000233e+01,2.687999999999999901e+01,2.688599999999999923e+01,2.689199999999999946e+01,2.689799999999999969e+01,2.690399999999999991e+01,2.691000000000000014e+01,2.691600000000000037e+01,2.692200000000000060e+01,2.692800000000000082e+01,2.693400000000000105e+01,2.694000000000000128e+01,2.694600000000000151e+01,2.695200000000000173e+01,2.695800000000000196e+01,2.696400000000000219e+01,2.696999999999999886e+01,2.697599999999999909e+01,2.698199999999999932e+01,2.698799999999999955e+01,2.699399999999999977e+01,2.700000000000000000e+01,2.700600000000000023e+01,2.701200000000000045e+01,2.701800000000000068e+01,2.702400000000000091e+01,2.703000000000000114e+01,2.703600000000000136e+01,2.704200000000000159e+01,2.704800000000000182e+01,2.705400000000000205e+01,2.706000000000000227e+01,2.706599999999999895e+01,2.707199999999999918e+01,2.707799999999999940e+01,2.708399999999999963e+01,2.708999999999999986e+01,2.709600000000000009e+01,2.710200000000000031e+01,2.710800000000000054e+01,2.711400000000000077e+01,2.712000000000000099e+01,2.712600000000000122e+01,2.713200000000000145e+01,2.713800000000000168e+01,2.714400000000000190e+01,2.715000000000000213e+01,2.715599999999999881e+01,2.716199999999999903e+01,2.716799999999999926e+01,2.717399999999999949e+01,2.717999999999999972e+01,2.718599999999999994e+01,2.719200000000000017e+01,2.719800000000000040e+01,2.720400000000000063e+01,2.721000000000000085e+01,2.721600000000000108e+01,2.722200000000000131e+01,2.722800000000000153e+01,2.723400000000000176e+01,2.724000000000000199e+01,2.724600000000000222e+01,2.725199999999999889e+01,2.725799999999999912e+01,2.726399999999999935e+01,2.726999999999999957e+01,2.727599999999999980e+01,2.728200000000000003e+01,2.728800000000000026e+01,2.729400000000000048e+01,2.730000000000000071e+01,2.730600000000000094e+01,2.731200000000000117e+01,2.731800000000000139e+01,2.732400000000000162e+01,2.733000000000000185e+01,2.733600000000000207e+01,2.734200000000000230e+01,2.734799999999999898e+01,2.735399999999999920e+01,2.735999999999999943e+01,2.736599999999999966e+01,2.737199999999999989e+01,2.737800000000000011e+01,2.738400000000000034e+01,2.739000000000000057e+01,2.739600000000000080e+01,2.740200000000000102e+01,2.740800000000000125e+01,2.741400000000000148e+01,2.742000000000000171e+01,2.742600000000000193e+01,2.743200000000000216e+01,2.743799999999999883e+01,2.744399999999999906e+01,2.744999999999999929e+01,2.745599999999999952e+01,2.746199999999999974e+01,2.746799999999999997e+01,2.747400000000000020e+01,2.748000000000000043e+01,2.748600000000000065e+01,2.749200000000000088e+01,2.749800000000000111e+01,2.750400000000000134e+01,2.751000000000000156e+01,2.751600000000000179e+01,2.752200000000000202e+01,2.752800000000000225e+01,2.753399999999999892e+01,2.753999999999999915e+01,2.754599999999999937e+01,2.755199999999999960e+01,2.755799999999999983e+01,2.756400000000000006e+01,2.757000000000000028e+01,2.757600000000000051e+01,2.758200000000000074e+01,2.758800000000000097e+01,2.759400000000000119e+01,2.760000000000000142e+01,2.760600000000000165e+01,2.761200000000000188e+01,2.761800000000000210e+01,2.762400000000000233e+01,2.762999999999999901e+01,2.763599999999999923e+01,2.764199999999999946e+01,2.764799999999999969e+01,2.765399999999999991e+01,2.766000000000000014e+01,2.766600000000000037e+01,2.767200000000000060e+01,2.767800000000000082e+01,2.768400000000000105e+01,2.769000000000000128e+01,2.769600000000000151e+01,2.770200000000000173e+01,2.770800000000000196e+01,2.771400000000000219e+01,2.771999999999999886e+01,2.772599999999999909e+01,2.773199999999999932e+01,2.773799999999999955e+01,2.774399999999999977e+01,2.775000000000000000e+01,2.775600000000000023e+01,2.776200000000000045e+01,2.776800000000000068e+01,2.777400000000000091e+01,2.778000000000000114e+01,2.778600000000000136e+01,2.779200000000000159e+01,2.779800000000000182e+01,2.780400000000000205e+01,2.781000000000000227e+01,2.781599999999999895e+01,2.782199999999999918e+01,2.782799999999999940e+01,2.783399999999999963e+01,2.783999999999999986e+01,2.784600000000000009e+01,2.785200000000000031e+01,2.785800000000000054e+01,2.786400000000000077e+01,2.787000000000000099e+01,2.787600000000000122e+01,2.788200000000000145e+01,2.788800000000000168e+01,2.789400000000000190e+01,2.790000000000000213e+01,2.790599999999999881e+01,2.791199999999999903e+01,2.791799999999999926e+01,2.792399999999999949e+01,2.792999999999999972e+01,2.793599999999999994e+01,2.794200000000000017e+01,2.794800000000000040e+01,2.795400000000000063e+01,2.796000000000000085e+01,2.796600000000000108e+01,2.797200000000000131e+01,2.797800000000000153e+01,2.798400000000000176e+01,2.799000000000000199e+01,2.799600000000000222e+01,2.800199999999999889e+01,2.800799999999999912e+01,2.801399999999999935e+01,2.801999999999999957e+01,2.802599999999999980e+01,2.803200000000000003e+01,2.803800000000000026e+01,2.804400000000000048e+01,2.805000000000000071e+01,2.805600000000000094e+01,2.806200000000000117e+01,2.806800000000000139e+01,2.807400000000000162e+01,2.808000000000000185e+01,2.808600000000000207e+01,2.809200000000000230e+01,2.809799999999999898e+01,2.810399999999999920e+01,2.810999999999999943e+01,2.811599999999999966e+01,2.812199999999999989e+01,2.812800000000000011e+01,2.813400000000000034e+01,2.814000000000000057e+01,2.814600000000000080e+01,2.815200000000000102e+01,2.815800000000000125e+01,2.816400000000000148e+01,2.817000000000000171e+01,2.817600000000000193e+01,2.818200000000000216e+01,2.818799999999999883e+01,2.819399999999999906e+01,2.819999999999999929e+01,2.820599999999999952e+01,2.821199999999999974e+01,2.821799999999999997e+01,2.822400000000000020e+01,2.823000000000000043e+01,2.823600000000000065e+01,2.824200000000000088e+01,2.824800000000000111e+01,2.825400000000000134e+01,2.826000000000000156e+01,2.826600000000000179e+01,2.827200000000000202e+01,2.827800000000000225e+01,2.828399999999999892e+01,2.828999999999999915e+01,2.829599999999999937e+01,2.830199999999999960e+01,2.830799999999999983e+01,2.831400000000000006e+01,2.832000000000000028e+01,2.832600000000000051e+01,2.833200000000000074e+01,2.833800000000000097e+01,2.834400000000000119e+01,2.835000000000000142e+01,2.835600000000000165e+01,2.836200000000000188e+01,2.836800000000000210e+01,2.837400000000000233e+01,2.837999999999999901e+01,2.838599999999999923e+01,2.839199999999999946e+01,2.839799999999999969e+01,2.840399999999999991e+01,2.841000000000000014e+01,2.841600000000000037e+01,2.842200000000000060e+01,2.842800000000000082e+01,2.843400000000000105e+01,2.844000000000000128e+01,2.844600000000000151e+01,2.845200000000000173e+01,2.845800000000000196e+01,2.846400000000000219e+01,2.846999999999999886e+01,2.847599999999999909e+01,2.848199999999999932e+01,2.848799999999999955e+01,2.849399999999999977e+01,2.850000000000000000e+01,2.850600000000000023e+01,2.851200000000000045e+01,2.851800000000000068e+01,2.852400000000000091e+01,2.853000000000000114e+01,2.853600000000000136e+01,2.854200000000000159e+01,2.854800000000000182e+01,2.855400000000000205e+01,2.856000000000000227e+01,2.856599999999999895e+01,2.857199999999999918e+01,2.857799999999999940e+01,2.858399999999999963e+01,2.858999999999999986e+01,2.859600000000000009e+01,2.860200000000000031e+01,2.860800000000000054e+01,2.861400000000000077e+01,2.862000000000000099e+01,2.862600000000000122e+01,2.863200000000000145e+01,2.863800000000000168e+01,2.864400000000000190e+01,2.865000000000000213e+01,2.865600000000000236e+01,2.866199999999999903e+01,2.866799999999999926e+01,2.867399999999999949e+01,2.867999999999999972e+01,2.868599999999999994e+01,2.869200000000000017e+01,2.869800000000000040e+01,2.870400000000000063e+01,2.871000000000000085e+01,2.871600000000000108e+01,2.872200000000000131e+01,2.872800000000000153e+01,2.873400000000000176e+01,2.874000000000000199e+01,2.874600000000000222e+01,2.875199999999999889e+01,2.875799999999999912e+01,2.876399999999999935e+01,2.876999999999999957e+01,2.877599999999999980e+01,2.878200000000000003e+01,2.878800000000000026e+01,2.879400000000000048e+01,